0.044157	-0.116796	-0.162813	0.026620
0.078209	-0.082039	-0.162101	0.032931
0.055019	-0.190181	-0.247046	0.039217
0.043343	-0.240776	-0.285958	0.043963
0.048846	-0.171245	-0.221922	0.046358
0.054326	-0.147679	-0.203829	0.046547
0.048362	-0.164181	-0.214361	0.045505
0.059553	-0.117801	-0.173454	0.044587
0.082119	-0.094451	-0.172686	0.044937
0.110302	-0.128299	-0.240443	0.047009
0.092686	-0.110614	-0.199425	0.050396
0.075141	-0.058739	-0.130021	0.054076
0.034827	-0.075599	-0.106583	0.056959
0.028939	-0.132362	-0.163184	0.058506
0.051626	-0.091816	-0.145318	0.059091
0.062800	-0.148510	-0.207469	0.059859
0.068217	-0.147868	-0.212259	0.062088
0.102163	-0.078703	-0.177056	0.066331
0.107417	-0.118317	-0.227651	0.071817
0.106939	-0.174898	-0.283746	0.076564
0.112171	-0.122750	-0.236824	0.078254
0.094541	-0.076525	-0.178671	0.075523
0.099823	-0.070461	-0.172148	0.068963
0.093662	-0.081552	-0.182781	0.061266
0.093235	-0.115438	-0.204789	0.056294
0.115651	-0.149184	-0.260967	0.057455
0.120843	-0.114267	-0.231258	0.066115
0.120303	-0.125174	-0.247351	0.080807
0.125474	-0.164587	-0.291928	0.097665
0.130623	-0.158154	-0.290637	0.111911
0.130039	-0.163168	-0.295059	0.119768
0.158008	-0.145318	-0.299461	0.119967
0.157310	-0.121829	-0.281000	0.114187
0.150903	-0.104146	-0.256903	0.106281
0.121679	-0.097955	-0.221481	0.100647
0.081154	-0.120339	-0.197623	0.100514
0.092186	-0.142632	-0.230964	0.106821
0.091753	-0.136279	-0.229904	0.118097
0.079899	-0.118531	-0.200295	0.131222
0.090935	-0.095145	-0.187937	0.142603
0.119055	-0.066143	-0.181338	0.149263
0.118508	-0.014417	-0.134792	0.149522
0.112252	-0.048559	-0.156959	0.143218
0.100310	-0.162504	-0.264689	0.131590
0.082706	-0.098961	-0.183535	0.116964
0.093724	-0.052809	-0.148394	0.102292
0.093277	-0.098210	-0.193340	0.090560
0.098540	-0.137713	-0.232389	0.084083
0.080940	-0.194185	-0.271277	0.083836
0.069121	-0.204741	-0.275741	0.089057
0.074482	-0.169570	-0.245922	0.097376
0.079819	-0.157382	-0.239065	0.105528
0.073714	-0.150953	-0.226523	0.110448
0.061922	-0.161680	-0.219741	0.110310
0.050179	-0.178072	-0.230116	0.105082
0.044193	-0.148712	-0.194763	0.096373
0.009680	-0.125182	-0.136712	0.086682
-0.030403	-0.118878	-0.090319	0.078394
-0.001797	-0.095468	-0.095507	0.072917
-0.007570	-0.106414	-0.100673	0.070264
-0.036161	-0.174418	-0.140079	0.069142
-0.036082	-0.185039	-0.150770	0.067462
-0.013163	-0.121380	-0.110024	0.063065
-0.030310	-0.109373	-0.080864	0.054445
-0.064517	-0.205911	-0.143187	0.041270
-0.058611	-0.256369	-0.193833	0.024552
-0.035598	-0.198122	-0.158615	0.006401
-0.035520	-0.117270	-0.077858	-0.010592
-0.041153	-0.116693	-0.077375	-0.024146
-0.063893	-0.196062	-0.133996	-0.033007
-0.069409	-0.223711	-0.150411	-0.037301
-0.052060	-0.182720	-0.132496	-0.038372
-0.046202	-0.227551	-0.183177	-0.038171
-0.034658	-0.220803	-0.182256	-0.038467
-0.046002	-0.151267	-0.101393	-0.040245
-0.057300	-0.116277	-0.060831	-0.043518
-0.051419	-0.172794	-0.123221	-0.047565
-0.051273	-0.166264	-0.116831	-0.051366
-0.073968	-0.182601	-0.104755	-0.054033
-0.056597	-0.193158	-0.138410	-0.055070
-0.016456	-0.163699	-0.143374	-0.054468
-0.022161	-0.202882	-0.182578	-0.052668
-0.073526	-0.241903	-0.164517	-0.050425
-0.090417	-0.143714	-0.055163	-0.048600
-0.095818	-0.131581	-0.031911	-0.047863
-0.112617	-0.142338	-0.031595	-0.048428
-0.095084	-0.135918	-0.036991	-0.049940
-0.066202	-0.163785	-0.099467	-0.051680
-0.071699	-0.134433	-0.064610	-0.053045
-0.094304	-0.150883	-0.052737	-0.054069
-0.076844	-0.150133	-0.069463	-0.055616
-0.053744	-0.177936	-0.120382	-0.059014
-0.042158	-0.177071	-0.131119	-0.065260
-0.059172	-0.181919	-0.118970	-0.074210
-0.058984	-0.186746	-0.129710	-0.084260
-0.047377	-0.185840	-0.134695	-0.092766
-0.052947	-0.133544	-0.076844	-0.097033
-0.087045	-0.155695	-0.070622	-0.095411
-0.063900	-0.177753	-0.115818	-0.087981
-0.063691	-0.154037	-0.086594	-0.076571
-0.069192	-0.141837	-0.074619	-0.064118
-0.046118	-0.158237	-0.108375	-0.053685
-0.023139	-0.134596	-0.113440	-0.047519
-0.017384	-0.093920	-0.072800	-0.046473
-0.028784	-0.139064	-0.106560	-0.049908
-0.045848	-0.201153	-0.151602	-0.056026
-0.074261	-0.211593	-0.133643	-0.062446
-0.108268	-0.182015	-0.070075	-0.066830
-0.090742	-0.192530	-0.098131	-0.067459
-0.090418	-0.220130	-0.131782	-0.063670
-0.078674	-0.179091	-0.102480	-0.056127
-0.055556	-0.138219	-0.084717	-0.046832
-0.066795	-0.148906	-0.078447	-0.038760
-0.072277	-0.148127	-0.072202	-0.035066
-0.077735	-0.181611	-0.105953	-0.038009
-0.071751	-0.180695	-0.105304	-0.047944
-0.065790	-0.179780	-0.110366	-0.062881
-0.048432	-0.150316	-0.103985	-0.078910
-0.036855	-0.120971	-0.086209	-0.091482
-0.053877	-0.143138	-0.085636	-0.097072
-0.070829	-0.176633	-0.102195	-0.094503
-0.087710	-0.170017	-0.084424	-0.085322
-0.070260	-0.186268	-0.118117	-0.073058
-0.058591	-0.219581	-0.163091	-0.061725
-0.041260	-0.172812	-0.127935	-0.054298
-0.041129	-0.137653	-0.098632	-0.051831
-0.058130	-0.136898	-0.080869	-0.053511
-0.063640	-0.164697	-0.103150	-0.057432
-0.074837	-0.169538	-0.096786	-0.061574
-0.051726	-0.174359	-0.119000	-0.064492
-0.045840	-0.190578	-0.146831	-0.065540
-0.034268	-0.246701	-0.208809	-0.064745
-0.028452	-0.228358	-0.196296	-0.062557
-0.074054	-0.158695	-0.081048	-0.059648
-0.113757	-0.123578	-0.011953	-0.056755
-0.107615	-0.094314	0.011177	-0.054505
-0.084365	-0.179374	-0.091415	-0.053223
-0.089762	-0.252664	-0.165034	-0.052849
-0.083715	-0.234286	-0.146984	-0.053083
-0.106244	-0.176009	-0.071904	-0.053748
-0.100128	-0.175072	-0.077075	-0.055126
-0.071195	-0.214109	-0.145038	-0.057992
-0.070932	-0.218723	-0.149907	-0.063217
-0.070669	-0.160502	-0.091941	-0.071123
-0.053275	-0.159620	-0.102735	-0.081002
-0.053083	-0.187293	-0.136325	-0.091091
-0.087154	-0.214850	-0.129804	-0.099098
-0.098242	-0.219451	-0.117598	-0.102997
-0.075023	-0.166928	-0.094020	-0.101766
-0.074739	-0.120328	-0.047696	-0.095731
-0.074456	-0.096759	-0.024403	-0.086465
-0.074174	-0.101838	-0.024045	-0.076304
-0.073891	-0.141156	-0.063661	-0.067704
-0.056479	-0.197442	-0.143086	-0.062587
-0.039137	-0.264917	-0.222185	-0.061857
0.000975	-0.195065	-0.192461	-0.065162
-0.010470	-0.085525	-0.077202	-0.071005
-0.038998	-0.090639	-0.053779	-0.077180
-0.033148	-0.192807	-0.161789	-0.081393
-0.033032	-0.214609	-0.177990	-0.081860
-0.095729	-0.167797	-0.074206	-0.077704
-0.118196	-0.206829	-0.090762	-0.069103
-0.094888	-0.222857	-0.130091	-0.057222
-0.088805	-0.198846	-0.117865	-0.044034
-0.082747	-0.197772	-0.117108	-0.032049
-0.059581	-0.202411	-0.139194	-0.023929
-0.047931	-0.167057	-0.121217	-0.021979
-0.047748	-0.120425	-0.074759	-0.027517
-0.053277	-0.108245	-0.057043	-0.040283
-0.053071	-0.124665	-0.067950	-0.058123
-0.052866	-0.135306	-0.084522	-0.077214
-0.052662	-0.163033	-0.112445	-0.092938
-0.069588	-0.179224	-0.111702	-0.101211
-0.069314	-0.166795	-0.099539	-0.099847
-0.063330	-0.103022	-0.041743	-0.089403
-0.051660	-0.045220	0.004397	-0.073105
-0.045747	-0.084729	-0.035307	-0.055827
-0.028437	-0.118365	-0.086268	-0.042470
-0.028329	-0.163282	-0.131309	-0.036363
-0.022511	-0.225144	-0.204716	-0.038262
-0.011006	-0.166835	-0.157903	-0.046265
0.011872	-0.120183	-0.128412	-0.056632
0.017526	-0.056589	-0.070488	-0.065127
0.006026	-0.010387	-0.012800	-0.068408
0.000283	0.007076	0.004679	-0.064976
-0.011147	-0.004085	0.010667	-0.055403
-0.045371	0.013353	0.056602	-0.041855
-0.068034	-0.037805	0.028115	-0.027162
-0.073472	-0.100173	-0.028807	-0.013877
-0.056046	-0.070919	-0.016971	-0.003686
-0.055822	-0.064626	-0.010894	0.002662
-0.032757	-0.035516	-0.004841	0.005016
0.001634	-0.092179	-0.095887	0.003381
0.007333	-0.131478	-0.140878	-0.002293
-0.009832	-0.079250	-0.065765	-0.011916
-0.009797	-0.095758	-0.088035	-0.024775
-0.009761	-0.135039	-0.121634	-0.039089
0.018827	-0.094212	-0.115121	-0.051983
0.030166	-0.110655	-0.142895	-0.060087
0.018617	-0.144161	-0.164844	-0.060638
0.035667	-0.114714	-0.146728	-0.052639
0.029806	-0.091096	-0.117265	-0.037491
0.012548	-0.107546	-0.122183	-0.018698
-0.004640	-0.141059	-0.138500	-0.000674
-0.021757	-0.151591	-0.131908	0.012848
-0.033093	-0.150658	-0.119631	0.020093
-0.027252	-0.092624	-0.067430	0.021630
0.007117	-0.023406	-0.032574	0.019723
0.024215	-0.085808	-0.106355	0.016997
-0.015861	-0.147953	-0.134150	0.015114
-0.055772	-0.152739	-0.099017	0.014095
-0.055547	-0.186055	-0.132550	0.012600
-0.055323	-0.202102	-0.148814	0.008984
-0.037968	-0.195240	-0.153588	0.002483
-0.020684	-0.216955	-0.198314	-0.006153
-0.037732	-0.227159	-0.191461	-0.014986
-0.049000	-0.185925	-0.138952	-0.021947
-0.031669	-0.133438	-0.103787	-0.025980
-0.037251	-0.138267	-0.103028	-0.027567
-0.054230	-0.143075	-0.090849	-0.028339
-0.065428	-0.176413	-0.118691	-0.030057
-0.059449	-0.209613	-0.146418	-0.033588
-0.064915	-0.214123	-0.151189	-0.038472
-0.070358	-0.195771	-0.127386	-0.043259
-0.058646	-0.148941	-0.092259	-0.046393
-0.035562	-0.130852	-0.091537	-0.047130
-0.035413	-0.112836	-0.079396	-0.045987
-0.046685	-0.163415	-0.118696	-0.044519
-0.046489	-0.202366	-0.152124	-0.044539
-0.034874	-0.178341	-0.145441	-0.047175
-0.034726	-0.160123	-0.121653	-0.052226
-0.045999	-0.176239	-0.132222	-0.058141
-0.017253	-0.158026	-0.137037	-0.062629
0.011375	-0.122755	-0.130409	-0.063656
-0.005796	-0.099047	-0.095256	-0.060339
-0.034318	-0.149669	-0.111638	-0.053338
-0.074143	-0.160110	-0.087980	-0.044555
-0.108095	-0.153375	-0.047287	-0.036284
-0.067671	-0.209480	-0.143806	-0.030236
-0.050255	-0.191118	-0.142854	-0.026932
-0.038619	-0.155699	-0.113352	-0.025802
0.012942	-0.206077	-0.215307	-0.025892
0.007188	-0.199144	-0.208347	-0.026736
-0.004253	-0.135134	-0.127178	-0.028779
0.001485	-0.082805	-0.086313	-0.032999
0.018619	-0.007849	-0.022772	-0.039907
0.041394	0.106774	0.063350	-0.048549
0.092627	0.226637	0.137698	-0.056228
0.126518	0.363138	0.240293	-0.059290
0.183110	0.481947	0.302494	-0.054659
0.228049	0.560294	0.330175	-0.041323
0.289933	0.621184	0.334900	-0.020905
0.317298	0.636138	0.316762	0.003062
0.293157	0.702418	0.407192	0.026861
0.309084	0.876917	0.565772	0.048465
0.256419	1.050695	0.792222	0.068595
0.215389	1.212332	0.994897	0.090391
0.191656	1.299062	1.105369	0.117792
0.150888	1.288352	1.135435	0.153300
0.133126	1.134917	0.999769	0.196109
0.075465	0.930709	0.853230	0.241473
-0.021934	0.761592	0.781519	0.281654
-0.124643	0.610292	0.732937	0.308179
-0.226931	0.442477	0.667417	0.314564
-0.328798	0.338159	0.664973	0.298431
-0.395983	0.314210	0.713927	0.262128
-0.422917	0.336039	0.756965	0.211539
-0.392634	0.203599	0.588538	0.153556
-0.322499	0.054568	0.375115	0.093312
-0.264070	0.020354	0.288189	0.032428
-0.200167	-0.002299	0.195907	-0.030820
-0.159366	0.015113	0.178236	-0.099428
-0.113020	-0.007517	0.103533	-0.174554
-0.061152	-0.024345	0.034846	-0.252860
-0.032338	-0.006841	0.029253	-0.325726
-0.020772	0.033433	0.052235	-0.380983
-0.014964	-0.000692	0.018020	-0.406730
-0.009179	-0.063229	-0.050317	-0.395760
-0.026259	-0.056985	-0.032719	-0.348733
-0.014717	-0.062186	-0.043744	-0.274716
-0.026064	-0.118758	-0.088984	-0.188764
-0.054495	-0.180807	-0.128329	-0.107493
-0.054257	-0.139814	-0.087566	-0.044324
-0.031178	-0.167511	-0.138334	-0.006147
-0.013904	-0.183673	-0.171762	0.007571
0.003299	-0.165504	-0.170789	0.003184
0.020432	-0.164540	-0.186950	-0.010300
0.008944	-0.169287	-0.174491	-0.024583
-0.013919	-0.162593	-0.144950	-0.034380
0.008995	-0.167345	-0.172632	-0.038034
0.014685	-0.172076	-0.183068	-0.036596
0.020350	-0.159655	-0.176328	-0.032181
0.025993	-0.141572	-0.169614	-0.026518
0.025902	-0.146404	-0.174347	-0.020330
0.025811	-0.111242	-0.139086	-0.013569
0.031431	-0.093353	-0.126809	-0.006089
0.014186	-0.121219	-0.137423	0.001808
0.014143	-0.126128	-0.142281	0.009297
-0.014451	-0.142436	-0.129987	0.015390
-0.014377	-0.147256	-0.134872	0.019439
0.014249	-0.083530	-0.094054	0.021442
0.048467	-0.037195	-0.087664	0.021966
0.065415	-0.031021	-0.098430	0.021742
0.048030	-0.047713	-0.097730	0.021207
0.036427	-0.138570	-0.171266	0.020290
0.030581	-0.149109	-0.175975	0.018614
0.036180	-0.102500	-0.140690	0.016033
0.053176	-0.113184	-0.162652	0.013138
0.070103	-0.140953	-0.213074	0.011349
0.046987	-0.157187	-0.200474	0.012395
0.046807	-0.144801	-0.193633	0.017417
0.052337	-0.086781	-0.135426	0.026193
0.057845	-0.051840	-0.111718	0.036979
0.046198	-0.068433	-0.116657	0.047130
0.051730	-0.090667	-0.144416	0.054195
0.068660	-0.084258	-0.149218	0.056923
0.085519	-0.072164	-0.153999	0.055698
0.090889	-0.065828	-0.158759	0.052228
0.073394	-0.076649	-0.152076	0.048723
0.067391	-0.058872	-0.122579	0.046985
0.072833	0.004515	-0.064649	0.047843
0.066831	-0.097956	-0.161134	0.051115
0.060854	-0.142903	-0.205830	0.055981
0.066321	-0.124851	-0.193237	0.061474
0.048924	-0.158265	-0.209245	0.066812
0.071570	-0.077333	-0.145241	0.071461
0.111254	-0.013862	-0.121470	0.075018
0.122223	-0.007755	-0.126347	0.077099
0.110304	-0.030223	-0.136912	0.077371
0.104144	-0.086861	-0.193115	0.075736
0.103719	-0.086162	-0.186273	0.072596
0.080453	-0.028362	-0.110933	0.069010
0.074413	-0.045032	-0.121554	0.066600
0.091238	-0.004529	-0.097869	0.067123
0.096573	0.012966	-0.085701	0.071782
0.090465	-0.049554	-0.136394	0.080552
0.072960	-0.111817	-0.181169	0.091864
0.072658	-0.122431	-0.191496	0.102910
0.083777	-0.138710	-0.218909	0.110550
0.089139	-0.109239	-0.194815	0.112504
0.088769	-0.022783	-0.108005	0.108274
0.111240	-0.045178	-0.158596	0.099384
0.122198	-0.056059	-0.180427	0.088779
0.127400	-0.055474	-0.185035	0.079692
0.126869	0.019344	-0.109679	0.074494
0.126339	0.002491	-0.125994	0.074028
0.131521	-0.048555	-0.182214	0.077654
0.130970	-0.019447	-0.152547	0.083866
0.153261	-0.030429	-0.185812	0.091103
0.158329	-0.075628	-0.236071	0.098344
0.140534	-0.017855	-0.160494	0.105265
0.139942	-0.011710	-0.148039	0.111990
0.133640	0.000120	-0.135633	0.118695
0.138784	0.017612	-0.123277	0.125321
0.155326	-0.027780	-0.179493	0.131537
0.137537	-0.055855	-0.201215	0.136891
0.131241	-0.043842	-0.182874	0.141019
0.153521	-0.026167	-0.181737	0.143755
0.169998	-0.014273	-0.186313	0.145139
0.174985	0.026123	-0.150896	0.145367
0.168530	0.009251	-0.161305	0.144738
0.162101	0.015290	-0.148828	0.143638
0.149985	0.009884	-0.136401	0.142542
0.137918	0.033052	-0.106892	0.142015
0.143031	0.027574	-0.117475	0.142652
0.153831	-0.017854	-0.173696	0.144927
0.181717	-0.040254	-0.223974	0.148951
0.192357	0.000252	-0.188389	0.154260
0.202951	-0.010800	-0.210051	0.159762
0.196369	-0.124592	-0.317276	0.164000
0.149840	-0.209365	-0.355536	0.165709
0.120632	-0.196713	-0.319401	0.164472
0.142935	-0.109876	-0.249150	0.161139
0.142304	-0.000553	-0.139211	0.157696
0.135964	-0.011594	-0.149638	0.156496
0.129649	-0.073981	-0.205702	0.159108
0.146200	-0.101850	-0.250115	0.165330
0.128420	-0.118183	-0.248660	0.172937
0.116423	-0.123027	-0.241498	0.178424
0.121604	-0.110719	-0.234363	0.178491
0.109632	-0.047067	-0.158731	0.171578
0.103419	-0.017937	-0.123380	0.158695
0.080099	-0.051739	-0.128144	0.143107
0.051164	-0.016877	-0.064363	0.129006
0.039477	0.012132	-0.029393	0.119782
0.056390	-0.027502	-0.080222	0.116669
0.021841	-0.009869	-0.033765	0.118334
0.015984	-0.009439	-0.021760	0.121504
0.021571	-0.083244	-0.101168	0.122303
0.021426	-0.128194	-0.151698	0.117698
0.032701	-0.093014	-0.127785	0.106529
0.015378	-0.069397	-0.081128	0.089778
-0.007584	-0.057297	-0.046080	0.070081
-0.019032	-0.073797	-0.051148	0.050751
-0.024722	-0.170172	-0.147559	0.034709
-0.024678	-0.169076	-0.146499	0.023678
-0.024634	-0.105169	-0.076917	0.017855
-0.036011	-0.081494	-0.053301	0.016038
-0.030210	-0.075046	-0.046912	0.016108
-0.035854	-0.091465	-0.063390	0.015693
-0.035763	-0.147787	-0.108350	0.012859
-0.029962	-0.129642	-0.101733	0.006657
-0.007054	-0.043047	-0.032327	-0.002628
-0.035633	-0.042460	-0.003177	-0.013611
-0.041253	-0.076137	-0.036960	-0.024297
-0.029718	-0.103964	-0.076314	-0.032750
-0.023941	-0.108835	-0.086954	-0.037688
-0.035318	-0.102264	-0.068997	-0.038828
-0.058069	-0.072876	-0.011141	-0.036861
-0.057885	-0.100712	-0.044886	-0.033151
-0.063412	-0.151273	-0.089912	-0.029272
-0.057495	-0.087419	-0.026257	-0.026556
-0.057312	-0.075218	-0.019965	-0.025797
-0.074260	-0.085907	-0.013698	-0.027182
-0.096849	-0.090841	0.003964	-0.030428
-0.090792	-0.118595	-0.029838	-0.035029
-0.061918	-0.111972	-0.052081	-0.040464
-0.033162	-0.053981	-0.022838	-0.046310
-0.038786	-0.076172	-0.039397	-0.052259
-0.055807	-0.126822	-0.067308	-0.058087
-0.049916	-0.108739	-0.060842	-0.063602
-0.049759	-0.085018	-0.037270	-0.068539
-0.032472	-0.038552	-0.002373	-0.072449
-0.020965	-0.060799	-0.041853	-0.074651
-0.049478	-0.100086	-0.052619	-0.074379
-0.032191	-0.139209	-0.103312	-0.071116
-0.037815	-0.126778	-0.085272	-0.064968
-0.054837	-0.114397	-0.055883	-0.056836
-0.048948	-0.039251	0.007647	-0.048234
-0.048792	-0.055777	-0.003316	-0.040814
-0.060058	-0.072234	-0.014234	-0.035818
-0.059856	-0.105754	-0.047948	-0.033718
-0.036813	-0.087742	-0.052971	-0.034196
-0.019574	-0.092644	-0.069393	-0.036422
-0.042378	-0.091815	-0.045775	-0.039461
-0.065089	-0.068146	-0.005121	-0.042605
-0.059154	-0.050283	0.012525	-0.045476
-0.087505	-0.118147	-0.032714	-0.047916
-0.070056	-0.168601	-0.094898	-0.049781
-0.052679	-0.156032	-0.099723	-0.050833
-0.063924	-0.109252	-0.041713	-0.050857
-0.052280	-0.136895	-0.081015	-0.049926
-0.034974	-0.124452	-0.085893	-0.048629
-0.017738	-0.117768	-0.096460	-0.048005
-0.017704	-0.105400	-0.084141	-0.049135
-0.023380	-0.035977	-0.009058	-0.052528
-0.046164	-0.041073	0.008615	-0.057663
-0.074564	-0.080408	-0.002336	-0.062931
-0.085716	-0.085319	-0.001820	-0.066121
-0.062560	-0.130181	-0.064120	-0.065258
-0.016657	-0.049231	-0.029088	-0.059502
0.000507	0.025679	0.022933	-0.049721
-0.033792	-0.071028	-0.039466	-0.038464
-0.045110	-0.133075	-0.095898	-0.029226
-0.056380	-0.126343	-0.066442	-0.025178
-0.067604	-0.136767	-0.065658	-0.027818
-0.055941	-0.095755	-0.036324	-0.036134
-0.027193	-0.077750	-0.052793	-0.046805
-0.027115	-0.128341	-0.097744	-0.055488
-0.021326	-0.047387	-0.028303	-0.058690
-0.015561	0.021817	0.035143	-0.055342
-0.032661	-0.069152	-0.038717	-0.047254
-0.066821	-0.148326	-0.083723	-0.038187
-0.060868	-0.135809	-0.077150	-0.032006
-0.049229	-0.100500	-0.047761	-0.030848
-0.060479	-0.082465	-0.024203	-0.034240
-0.048840	-0.064503	-0.017871	-0.039581
-0.048670	-0.058034	-0.005854	-0.043666
-0.031369	-0.068722	-0.033857	-0.044414
-0.019848	-0.113626	-0.090297	-0.041893
-0.042637	-0.146924	-0.106532	-0.038144
-0.042491	-0.162953	-0.122699	-0.035971
-0.048055	-0.156074	-0.110247	-0.037376
-0.019334	-0.086407	-0.063582	-0.042453
-0.013572	-0.051286	-0.034238	-0.049287
-0.024964	-0.056280	-0.033566	-0.054861
-0.036309	-0.038411	-0.004343	-0.056493
-0.041897	-0.066297	-0.020922	-0.053085
-0.053172	-0.116908	-0.065984	-0.045572
-0.047270	-0.150180	-0.105150	-0.036420
-0.041391	-0.126211	-0.087051	-0.028484
-0.035536	-0.142311	-0.103287	-0.023856
-0.035415	-0.164053	-0.130875	-0.023206
-0.029584	-0.105759	-0.078405	-0.025850
-0.018066	-0.041993	-0.026148	-0.030326
-0.012306	-0.052720	-0.036917	-0.035111
-0.029410	-0.126217	-0.099035	-0.039108
-0.063574	-0.148017	-0.086662	-0.041767
-0.063337	-0.118334	-0.051498	-0.042923
-0.051679	-0.088771	-0.033608	-0.042563
-0.045779	-0.059327	-0.015790	-0.040728
-0.039902	-0.052844	-0.009465	-0.037609
-0.045470	-0.029256	0.019676	-0.033760
-0.022463	-0.040025	-0.019825	-0.030218
-0.022391	-0.056460	-0.036323	-0.028335
-0.033740	-0.107088	-0.075594	-0.029283
-0.027912	-0.134666	-0.108992	-0.033443
-0.010686	-0.093605	-0.079439	-0.040002
-0.010661	-0.001319	0.007098	-0.047031
-0.004927	-0.017905	-0.009504	-0.052100
-0.022057	-0.102947	-0.077431	-0.053185
-0.039116	-0.147667	-0.110817	-0.049479
-0.038974	-0.123678	-0.086961	-0.041712
-0.027412	-0.048392	-0.023229	-0.031859
-0.027318	-0.070490	-0.045412	-0.022378
-0.055775	-0.081075	-0.027532	-0.015360
-0.038433	-0.011670	0.024539	-0.011944
-0.021161	-0.051046	-0.032100	-0.012186
-0.026802	-0.124521	-0.094216	-0.015308
-0.043839	-0.123459	-0.081842	-0.020136
-0.043675	-0.105269	-0.058097	-0.025505
-0.026381	-0.041469	-0.017317	-0.030501
-0.026288	-0.000771	0.029007	-0.034525
-0.049037	-0.023052	0.023749	-0.037251
-0.048850	-0.113766	-0.067142	-0.038570
-0.031533	-0.164133	-0.129108	-0.038573
-0.019997	-0.111507	-0.093744	-0.037557
0.002912	-0.047674	-0.052812	-0.036005
-0.008534	-0.046915	-0.040598	-0.034496
-0.019933	-0.137523	-0.114089	-0.033553
-0.031285	-0.090711	-0.061649	-0.033454
-0.042590	-0.061219	-0.015134	-0.034063
-0.036718	-0.106082	-0.071594	-0.034781
-0.008028	-0.087946	-0.076429	-0.034698
-0.002297	-0.069882	-0.069822	-0.032976
-0.002299	-0.040471	-0.040400	-0.029316
-0.019433	-0.022600	0.000323	-0.024284
-0.013655	0.046592	0.058011	-0.019227
-0.002189	-0.010127	-0.004454	-0.015747
-0.013613	-0.118005	-0.100924	-0.014919
-0.024989	-0.105523	-0.077081	-0.016695
-0.030608	-0.087380	-0.053334	-0.019821
-0.036203	-0.057890	-0.023973	-0.022388
-0.030355	0.017164	0.045240	-0.022721
-0.001689	0.046227	0.051357	-0.020197
0.009728	0.069462	0.057449	-0.015572
0.032520	0.109733	0.080647	-0.010689
0.020956	0.087025	0.063778	-0.007685
0.003729	0.018727	0.018427	-0.008038
-0.002007	-0.015028	-0.015318	-0.011836
0.003701	0.008459	0.008179	-0.017575
0.009386	0.043271	0.037291	-0.022608
0.015047	0.089361	0.071995	-0.024129
0.032106	0.106711	0.072294	-0.020336
0.037675	0.066886	0.032620	-0.011301
0.014668	-0.029879	-0.046863	0.000898
0.026018	-0.029171	-0.057496	0.012898
0.054452	0.028638	-0.028112	0.021382
0.065638	0.023398	-0.044530	0.024442
0.048226	-0.021793	-0.072301	0.022354
0.036595	0.018857	-0.014302	0.017404
0.036433	0.076471	0.043461	0.012885
0.047691	-0.020328	-0.070323	0.011727
0.058903	-0.128151	-0.183639	0.015401
0.052938	-0.121325	-0.176572	0.023483
0.018445	-0.080262	-0.095298	0.033978
0.001224	-0.045077	-0.048617	0.044162
0.018336	-0.021456	-0.036388	0.051594
0.018247	-0.015061	-0.029919	0.054903
-0.010394	0.014150	0.022207	0.054095
-0.021786	0.008979	0.028438	0.050290
0.006840	0.009541	0.000381	0.045049
0.006798	0.015811	0.006702	0.039638
0.001046	-0.046468	-0.044105	0.034557
-0.027524	-0.074228	-0.043311	0.029533
-0.033135	-0.061902	-0.025388	0.023914
-0.010172	-0.078176	-0.064640	0.017232
-0.010143	-0.077251	-0.069469	0.009622
0.001306	-0.099170	-0.097118	0.001896
0.018418	-0.069605	-0.084680	-0.004792
0.018329	-0.045870	-0.060871	-0.009484
0.012531	-0.090755	-0.105682	-0.011874
0.006756	-0.118323	-0.127467	-0.012384
-0.016127	-0.140067	-0.120609	-0.011843
-0.016074	-0.081775	-0.068095	-0.010939
-0.021731	-0.040852	-0.021506	-0.009822
-0.004524	-0.045778	-0.043630	-0.008081
-0.004519	-0.079234	-0.071372	-0.005163
-0.021644	-0.101131	-0.081869	-0.000955
-0.010147	-0.077254	-0.069481	0.003809
0.001303	-0.064895	-0.062852	0.007636
-0.004425	-0.052585	-0.050539	0.008854
0.007002	-0.023193	-0.032565	0.006430
0.012671	0.034631	0.025309	0.000574
0.024027	0.029405	0.003002	-0.007176
0.029627	-0.032902	-0.059186	-0.014471
0.023783	-0.060691	-0.081145	-0.019015
0.023672	-0.139758	-0.160117	-0.019386
0.012142	-0.121424	-0.130267	-0.015461
-0.005052	-0.108873	-0.106247	-0.008312
0.006377	-0.136344	-0.139428	0.000320
0.023469	-0.152281	-0.172471	0.008680
0.057621	-0.139598	-0.199666	0.015490
0.080213	-0.092704	-0.175354	0.020126
0.079870	-0.023159	-0.105458	0.022498
0.068108	0.046102	-0.024425	0.022862
0.067813	0.132210	0.061986	0.021730
0.096071	0.195124	0.096651	0.019951
0.147054	0.263490	0.114043	0.018811
0.203537	0.400098	0.194177	0.019931
0.254077	0.541854	0.285403	0.024834
0.292986	0.654475	0.364832	0.034337
0.326024	0.703815	0.381120	0.048155
0.353214	0.798631	0.448732	0.065050
0.346027	0.915893	0.567456	0.083589
0.344577	1.049799	0.708531	0.103124
0.331709	1.194569	0.860444	0.124419
0.296051	1.281634	0.977466	0.149423
0.266246	1.345491	1.076870	0.180181
0.230850	1.346261	1.113045	0.217347
0.149915	1.221391	1.069119	0.259029
0.069311	0.994238	0.922578	0.300597
-0.005254	0.830820	0.833734	0.335650
-0.096644	0.673776	0.768089	0.357786
-0.221921	0.505949	0.725548	0.362441
-0.340972	0.350227	0.688885	0.348037
-0.396720	0.275085	0.669499	0.315988
-0.389422	0.217379	0.610215	0.269647
-0.359310	0.171330	0.528328	0.212710
-0.306476	0.108337	0.418221	0.147833
-0.253857	0.057023	0.308562	0.076080
-0.195740	0.040180	0.233612	-0.002471
-0.126440	0.057669	0.181809	-0.087188
-0.091684	0.069376	0.164479	-0.175065
-0.074200	0.075325	0.152929	-0.259585
-0.045367	0.098380	0.141426	-0.331069
0.000479	0.109920	0.107129	-0.378749
0.029007	0.098571	0.072971	-0.393995
0.011735	0.058717	0.044663	-0.373496
-0.016886	0.076129	0.096416	-0.321061
-0.005419	0.036367	0.039461	-0.247162
0.011713	-0.037495	-0.051522	-0.166212
0.034484	-0.071080	-0.102160	-0.092540
0.051451	-0.093106	-0.141169	-0.036561
0.034087	-0.035096	-0.071519	-0.002512
0.033925	-0.045847	-0.076389	0.011584
0.050893	-0.085104	-0.138340	0.012031
0.056372	-0.107069	-0.165774	0.006640
0.050406	-0.060418	-0.113149	0.002116
0.055886	-0.093901	-0.146392	0.002436
0.067053	-0.098694	-0.168078	0.008485
0.055332	-0.052074	-0.104018	0.018725
0.043659	-0.028484	-0.074480	0.030421
0.037744	-0.039253	-0.079325	0.040903
0.048984	-0.038556	-0.084148	0.048467
0.065887	-0.015019	-0.077529	0.052704
0.037038	-0.025840	-0.065227	0.054281
0.031149	-0.025195	-0.058684	0.054370
0.048124	-0.058814	-0.109269	0.054019
0.065030	-0.023771	-0.091123	0.053755
0.070445	0.005420	-0.061628	0.053526
0.058707	-0.028322	-0.089357	0.052957
0.058436	-0.016243	-0.076998	0.051707
0.086718	-0.032763	-0.116082	0.049768
0.080622	-0.077767	-0.160714	0.047570
0.068840	-0.054062	-0.125218	0.045886
0.079946	-0.053293	-0.129837	0.045577
0.068165	-0.069658	-0.140146	0.047273
0.062142	-0.028852	-0.087597	0.051130
0.073275	-0.005342	-0.080945	0.056733
0.067230	0.000940	-0.068609	0.063205
0.072630	0.012908	-0.062033	0.069444
0.095138	0.047669	-0.049771	0.074413
0.094712	0.076577	-0.020429	0.077393
0.071446	0.099656	0.031636	0.078137
0.076826	0.025565	-0.053560	0.076922
0.087893	-0.008250	-0.098434	0.074487
0.116046	-0.059056	-0.177384	0.071877
0.149792	-0.086812	-0.238878	0.070193
0.137717	-0.063061	-0.203042	0.070283
0.097138	-0.016564	-0.115958	0.072481
0.039594	-0.021649	-0.057781	0.076531
0.027967	-0.021003	-0.045523	0.081779
0.090623	0.019613	-0.073287	0.087531
0.095917	0.048643	-0.043832	0.093346
0.089769	0.066134	-0.020208	0.098991
0.112196	0.026450	-0.088045	0.104084
0.128820	0.032611	-0.098499	0.107712
0.116824	0.050168	-0.068937	0.108481
0.087745	-0.012291	-0.096598	0.105152
0.110177	-0.045942	-0.158406	0.097595
0.121096	-0.005220	-0.122884	0.087454
0.126258	0.058177	-0.070374	0.077966
0.125688	0.092763	-0.029499	0.072853
0.119409	0.092945	-0.023053	0.074738
0.124575	0.058864	-0.062315	0.083876
0.118299	0.036344	-0.084284	0.097889
0.094916	0.013916	-0.083320	0.112674
0.100180	-0.014130	-0.110911	0.124074
0.133973	0.037884	-0.092704	0.129505
0.156206	0.095396	-0.057440	0.128798
0.155505	0.106989	-0.050870	0.123933
0.166226	0.089983	-0.072878	0.117919
0.188323	0.033075	-0.157609	0.113436
0.187486	0.044923	-0.144914	0.111921
0.163810	0.056724	-0.103719	0.113448
0.163071	0.057055	-0.108373	0.117289
0.179464	0.103068	-0.073034	0.122695
0.161526	0.068947	-0.094942	0.129410
0.155082	0.040677	-0.116759	0.137626
0.171504	0.046784	-0.127065	0.147500
0.170726	0.024315	-0.148747	0.158571
0.158529	0.059042	-0.101814	0.169502
0.146380	0.042234	-0.106465	0.178344
0.145701	-0.003057	-0.151068	0.183243
0.179286	0.003232	-0.172645	0.183237
0.195600	0.032336	-0.159870	0.178745
0.171873	0.044190	-0.130014	0.171477
0.182504	0.061707	-0.123120	0.163808
0.204511	0.079152	-0.127673	0.157923
0.180743	0.107945	-0.075102	0.155131
0.157071	0.068097	-0.085559	0.155637
0.162046	0.114067	-0.050289	0.158790
0.167000	0.079904	-0.089397	0.163562
0.171931	-0.005512	-0.179736	0.168986
0.165421	-0.039185	-0.201179	0.174333
0.158935	-0.027037	-0.188271	0.179039
0.175316	0.025035	-0.146861	0.182536
0.168787	0.048342	-0.122749	0.184197
0.207966	0.077265	-0.127287	0.183502
0.212721	0.054676	-0.160356	0.180339
0.183192	0.032179	-0.147604	0.175251
0.170914	0.061168	-0.106352	0.169451
0.164395	-0.018458	-0.179473	0.164559
0.175032	-0.086336	-0.263713	0.162139
0.179913	-0.051149	-0.227689	0.163218
0.161932	-0.021815	-0.186099	0.167907
0.121182	-0.038284	-0.161808	0.175249
0.120570	0.013840	-0.109064	0.183380
0.148510	0.071461	-0.079375	0.190005
0.136363	0.054612	-0.078357	0.193076
0.141396	0.037832	-0.105895	0.191434
0.123565	0.032541	-0.093345	0.185126
0.100095	0.021563	-0.075136	0.175311
0.122404	0.062022	-0.056999	0.163803
0.127489	0.108026	-0.021805	0.152505
0.104000	0.039636	-0.060988	0.142925
0.080607	0.028628	-0.054327	0.135881
0.080150	0.029087	-0.047692	0.131419
0.056853	0.006703	-0.052504	0.128920
0.045071	-0.009878	-0.057295	0.127357
0.067599	-0.009260	-0.073485	0.125612
0.055773	0.014197	-0.043926	0.122743
0.049704	0.026138	-0.025907	0.118133
0.043660	0.049452	0.003459	0.111506
0.037640	0.061249	0.021285	0.102899
0.043065	0.004475	-0.035195	0.092656
0.025626	-0.046357	-0.074312	0.081445
0.002548	-0.028455	-0.033323	0.070232
-0.020436	-0.033467	-0.009633	0.060128
-0.031905	0.012936	0.042514	0.052094
-0.014775	0.013466	0.025923	0.046589
-0.014846	-0.025978	-0.007730	0.043323
-0.009207	-0.013866	-0.006983	0.041220
0.007830	0.038169	0.033734	0.038660
0.013377	-0.007085	-0.017080	0.033970
-0.003941	-0.012180	-0.010583	0.026039
-0.026898	-0.005833	0.018731	0.014854
-0.032631	-0.005221	0.025083	0.001732
-0.026918	-0.016033	0.014279	-0.010921
-0.009809	0.007463	0.020651	-0.020342
0.001520	-0.009109	-0.007265	-0.024419
0.001382	-0.014192	-0.017935	-0.022601
-0.004466	-0.013543	-0.005719	-0.016281
-0.010290	0.027077	0.035000	-0.008400
-0.004669	0.044689	0.047000	-0.002336
0.000928	0.016546	0.018980	-0.000532
0.012213	-0.005770	-0.014636	-0.003480
0.023451	0.051950	0.026121	-0.009556
0.011802	0.052331	0.038160	-0.015801
-0.016931	0.029869	0.050150	-0.019258
-0.045546	0.001789	0.044960	-0.018229
-0.028361	-0.066148	-0.040152	-0.012865
0.011595	-0.036730	-0.044971	-0.004930
0.022836	0.101065	0.081569	0.003052
-0.011652	0.078406	0.087673	0.008763
-0.028868	0.061551	0.088043	0.010776
-0.017462	0.061895	0.076990	0.008809
-0.046075	-0.029127	0.014589	0.003633
-0.040308	-0.039831	0.003838	-0.003216
-0.017434	-0.090462	-0.075393	-0.009866
-0.017494	-0.106623	-0.091484	-0.014661
-0.017554	-0.071323	-0.050405	-0.016721
-0.017614	-0.030456	-0.015203	-0.016305
-0.029095	-0.018308	0.008435	-0.014730
-0.017686	-0.011918	0.003426	-0.013804
-0.023456	-0.016975	0.009857	-0.014975
-0.046332	-0.050562	-0.000867	-0.018599
-0.034853	-0.032617	-0.000127	-0.023733
-0.006290	0.002386	0.006322	-0.028559
0.010736	0.054377	0.047007	-0.031257
-0.006570	0.066183	0.076104	-0.030891
-0.018095	0.003707	0.025139	-0.027845
-0.023862	0.010011	0.037195	-0.023628
-0.029606	0.044841	0.072045	-0.020095
-0.006774	0.045267	0.055358	-0.018524
-0.006878	0.017140	0.027320	-0.018997
0.004440	0.000549	-0.000603	-0.020451
-0.029971	-0.021683	0.005851	-0.021326
-0.052820	-0.003852	0.046541	-0.020468
-0.041314	-0.008934	0.035672	-0.017738
-0.018434	-0.025415	-0.003704	-0.014040
-0.024199	-0.047538	-0.025787	-0.010815
-0.029940	-0.075280	-0.047778	-0.009342
-0.012816	-0.028673	-0.018286	-0.010238
-0.024314	-0.016518	0.005377	-0.013348
-0.035765	0.001299	0.034653	-0.017943
-0.047169	-0.038060	0.000997	-0.023033
-0.047105	-0.048706	-0.003970	-0.027628
-0.024200	-0.042175	-0.014626	-0.030922
-0.012809	-0.041381	-0.025237	-0.032429
-0.035726	-0.034879	0.004169	-0.032119
-0.035708	-0.028402	0.004903	-0.030481
-0.001429	-0.004821	-0.005786	-0.028441
-0.012972	-0.009886	0.006411	-0.027064
-0.018757	-0.014930	0.007138	-0.027112
-0.007388	0.008598	0.013573	-0.028679
-0.018907	-0.002231	0.014271	-0.031080
-0.041799	-0.018725	0.026389	-0.033104
-0.053177	-0.006599	0.044167	-0.033502
-0.058797	-0.023074	0.039032	-0.031520
-0.047263	-0.028060	0.022497	-0.027254
-0.018644	0.012658	0.034582	-0.021692
-0.030115	-0.015315	0.012357	-0.016464
-0.047250	-0.014620	0.030195	-0.013362
-0.030051	-0.025348	0.007988	-0.013781
-0.007213	0.003941	0.014425	-0.018215
-0.024441	0.027400	0.049387	-0.025970
-0.035888	-0.000629	0.038524	-0.035243
-0.035866	0.034271	0.067678	-0.043598
-0.018714	0.006215	0.028189	-0.048735
-0.024473	-0.050278	-0.022559	-0.049266
-0.018788	-0.049435	-0.033125	-0.045191
-0.013126	-0.020042	-0.009386	-0.037899
-0.030329	-0.030742	-0.002873	-0.029670
-0.024619	-0.018555	0.009323	-0.022871
-0.013223	0.010713	0.027181	-0.019143
-0.019004	-0.011531	0.004994	-0.018890
-0.030472	-0.039393	-0.005681	-0.021247
-0.053313	-0.055720	-0.004891	-0.024541
-0.047508	-0.049137	0.001607	-0.027023
-0.047438	-0.002608	0.042341	-0.027567
-0.035947	-0.041923	-0.008457	-0.026052
-0.013082	-0.058236	-0.047625	-0.023334
-0.018862	-0.034508	-0.018108	-0.020866
-0.001777	0.011965	0.011289	-0.020118
-0.013314	0.052537	0.063408	-0.022018
-0.041934	0.030131	0.069631	-0.026550
-0.030465	-0.003605	0.030146	-0.032647
-0.019042	-0.031491	-0.009177	-0.038446
-0.013377	0.020683	0.037317	-0.041875
0.003686	-0.018722	-0.019165	-0.041421
-0.002162	-0.023703	-0.018312	-0.036782
-0.013697	-0.028662	-0.017461	-0.029121
-0.042315	-0.027890	0.017649	-0.020701
-0.047975	0.029983	0.081167	-0.014022
-0.036480	0.007675	0.047350	-0.010792
-0.030742	-0.054514	-0.026300	-0.011249
-0.025028	-0.082184	-0.053966	-0.014192
-0.019337	-0.029796	-0.007282	-0.017703
-0.019379	0.022379	0.039211	-0.020178
-0.025132	-0.034155	-0.011562	-0.021110
-0.042281	-0.107588	-0.067836	-0.021193
-0.030808	-0.077933	-0.049644	-0.021727
-0.025093	-0.036978	-0.014395	-0.023719
-0.025111	-0.053292	-0.024972	-0.027197
-0.013708	-0.063828	-0.046925	-0.031144
-0.030903	-0.034348	-0.005973	-0.034040
-0.036608	0.017854	0.057653	-0.034695
-0.013737	0.029871	0.041074	-0.032876
-0.008090	0.030418	0.035984	-0.029409
-0.036729	-0.003299	0.036625	-0.025739
-0.048119	-0.002615	0.042975	-0.023229
-0.008069	-0.007644	-0.002094	-0.022566
0.031817	0.010190	-0.024136	-0.023552
0.054408	0.090765	0.033857	-0.025309
0.031223	0.096776	0.063062	-0.026764
0.002423	0.022818	0.023623	-0.027119
-0.003418	0.046238	0.052870	-0.026060
-0.009235	0.086694	0.093419	-0.023613
-0.020739	0.138404	0.162353	-0.019804
-0.015065	0.144220	0.162480	-0.014451
-0.003703	0.104329	0.111213	-0.007326
0.001902	0.110283	0.105838	0.001353
-0.003937	0.121923	0.123327	0.010466
-0.009752	0.150646	0.157874	0.017975
-0.015543	0.110727	0.123756	0.021542
-0.004180	0.019579	0.026963	0.019555
0.001427	-0.008383	-0.012329	0.012049
0.018431	0.032295	0.011354	0.000984
0.023945	0.044255	0.023520	-0.010343
0.023725	0.067587	0.041347	-0.018532
0.046347	0.073692	0.024839	-0.021373
0.051746	0.062642	0.008400	-0.018591
0.051411	0.063057	0.009159	-0.011724
0.045367	0.052050	0.009916	-0.003245
0.039347	0.001117	-0.040722	0.004604
0.050483	0.001785	-0.045469	0.010702
0.044441	0.036714	-0.010224	0.015303
0.044134	0.037237	-0.003673	0.019599
0.038118	0.009208	-0.031411	0.024880
0.026415	0.004135	-0.024772	0.031725
0.020471	0.039055	0.016103	0.039605
-0.002581	0.062412	0.062521	0.047079
-0.042669	0.034281	0.074487	0.052414
-0.031200	0.017686	0.046432	0.054325
-0.019777	0.058263	0.075595	0.052453
-0.008401	0.018729	0.024695	0.047367
0.002928	-0.054904	-0.054548	0.040143
-0.014341	-0.099683	-0.082072	0.031772
-0.037249	-0.087174	-0.046669	0.022763
-0.031512	-0.051873	-0.017120	0.013161
-0.014377	-0.005295	0.012309	0.002956
-0.014444	0.041092	0.053039	-0.007409
-0.043062	0.047318	0.087892	-0.016841
-0.037300	0.013546	0.048368	-0.023883
0.002700	-0.008666	-0.008125	-0.027385
-0.003146	0.003475	0.004138	-0.027145
-0.020389	-0.001563	0.016352	-0.024158
-0.009010	-0.029422	-0.022877	-0.020281
-0.009098	-0.022904	-0.016261	-0.017477
-0.020606	-0.079225	-0.061065	-0.016987
-0.026356	-0.095342	-0.071421	-0.018816
-0.026373	-0.065708	-0.041762	-0.021785
0.002162	-0.001933	-0.000803	-0.024116
-0.015102	0.027319	0.039989	-0.024294
-0.015165	0.067873	0.080615	-0.021793
-0.009517	0.016895	0.023999	-0.017339
-0.003892	-0.045293	-0.043805	-0.012575
0.001710	-0.050123	-0.054228	-0.009306
-0.021263	-0.089193	-0.070316	-0.008676
-0.027011	-0.088131	-0.063497	-0.010657
-0.009893	0.004295	0.011820	-0.014096
-0.009977	0.010687	0.018305	-0.017253
0.012781	-0.022918	-0.032338	-0.018586
0.046866	-0.044965	-0.094195	-0.017413
0.052260	-0.066920	-0.121534	-0.014177
0.051920	-0.065942	-0.120208	-0.010189
0.051582	-0.064967	-0.113175	-0.006955
0.045534	-0.018313	-0.060487	-0.005366
0.028089	0.102385	0.077641	-0.005131
0.044978	0.154065	0.106708	-0.004746
0.084638	0.171271	0.084262	-0.002083
0.112715	0.274060	0.164695	0.004606
0.163517	0.450661	0.284769	0.015724
0.214109	0.569432	0.352957	0.029903
0.253071	0.676291	0.420863	0.044415
0.291872	0.737026	0.448516	0.056362
0.324801	0.780375	0.458922	0.064159
0.323330	0.829251	0.503544	0.068641
0.333283	0.923602	0.587952	0.073214
0.297510	1.091795	0.797637	0.082844
0.233329	1.225028	0.989326	0.102221
0.220802	1.340574	1.111699	0.133791
0.191193	1.392823	1.199300	0.176434
0.127442	1.324931	1.195167	0.225309
0.041110	1.097417	1.053994	0.272920
0.000814	0.859406	0.861999	0.311032
-0.039318	0.719438	0.762149	0.332780
-0.130678	0.574328	0.702674	0.334316
-0.301607	0.458359	0.763353	0.315489
-0.420440	0.382835	0.806648	0.279426
-0.441708	0.353299	0.792656	0.231190
-0.405783	0.318172	0.727323	0.176036
-0.358580	0.328869	0.685092	0.117784
-0.300147	0.236735	0.534534	0.057829
-0.224820	0.093583	0.316065	-0.004854
-0.155510	0.082355	0.235536	-0.072553
-0.115035	0.116855	0.229570	-0.146705
-0.074724	0.145503	0.217916	-0.225537
-0.034578	0.156902	0.189178	-0.302596
-0.034568	0.128282	0.160557	-0.367158
-0.040269	0.065516	0.103500	-0.406839
0.005447	0.048689	0.040967	-0.411697
0.033845	0.003381	-0.032730	-0.378227
0.044995	0.026782	-0.014760	-0.311546
0.044678	0.095769	0.054530	-0.224667
0.015811	0.090240	0.072144	-0.134931
0.009902	0.027631	0.015451	-0.058863
0.026860	-0.029012	-0.058140	-0.007343
0.026616	-0.068291	-0.097166	0.017116
0.032083	-0.033174	-0.061798	0.020028
0.014687	-0.021042	-0.037993	0.011820
0.014492	-0.037510	-0.048547	0.003349
0.042850	0.048876	0.003756	0.001909
0.031119	0.089226	0.055846	0.009254
0.019435	0.026625	0.004937	0.022145
0.036351	-0.047141	-0.085735	0.034825
0.024645	-0.069210	-0.096090	0.042096
0.030118	-0.045506	-0.072139	0.041618
0.046989	-0.044739	-0.088258	0.034607
0.052370	-0.043974	-0.098598	0.024879
0.052018	-0.003239	-0.051792	0.016918
0.051667	0.043040	-0.010887	0.013926
0.057027	0.032026	-0.027252	0.016702
0.073785	-0.007494	-0.083521	0.023713
0.073343	0.010251	-0.059614	0.032138
0.067191	0.039345	-0.030094	0.039285
0.072485	0.051189	-0.017824	0.043703
0.072046	0.074405	0.005816	0.045562
0.071608	0.051844	-0.022032	0.046266
0.071172	-0.016308	-0.089738	0.047596
0.070736	-0.027077	-0.100062	0.050829
0.070302	0.002172	-0.064660	0.056201
0.058448	0.048432	-0.012271	0.062876
0.069483	0.043110	-0.028619	0.069381
0.091893	0.026389	-0.062031	0.074241
0.097079	0.021157	-0.072463	0.076551
0.073692	0.073051	-0.002907	0.076254
0.078951	0.050497	-0.030711	0.074071
0.072767	-0.000515	-0.075531	0.071183
0.066608	-0.011346	-0.080194	0.068824
0.100446	0.017840	-0.079126	0.067941
0.117013	0.058328	-0.055220	0.068975
0.076409	0.081519	0.002851	0.071786
0.070231	0.110325	0.043554	0.075701
0.081209	0.059069	-0.024406	0.079734
0.103563	0.025153	-0.074955	0.082931
0.102982	0.042769	-0.062483	0.084734
0.073851	0.054603	-0.021509	0.085190
0.067680	0.037837	-0.032095	0.084871
0.078665	0.038271	-0.036926	0.084547
0.089603	0.015862	-0.075999	0.084809
0.106207	-0.012165	-0.120621	0.085815
0.111321	0.034157	-0.073693	0.087268
0.116412	0.074580	-0.038377	0.088583
0.115772	0.069154	-0.043176	0.089163
0.109423	0.029489	-0.076507	0.088688
0.091678	0.018537	-0.075438	0.087345
0.085425	0.059024	-0.022979	0.085884
0.073487	0.127897	0.057817	0.085432
0.084439	0.127963	0.046917	0.087069
0.118186	0.076635	-0.038172	0.091302
0.146083	0.048359	-0.100070	0.097652
0.156734	0.031620	-0.121741	0.104606
0.155919	0.094893	-0.057667	0.110043
0.137975	0.129356	-0.005274	0.112062
0.148655	0.049470	-0.095854	0.109911
0.136448	0.049856	-0.088986	0.104605
0.118580	0.101634	-0.019331	0.098844
0.135046	0.056124	-0.075587	0.096127
0.140023	0.016510	-0.125902	0.099342
0.139267	0.045583	-0.096064	0.109408
0.144224	0.103088	-0.037796	0.124628
0.143448	0.091834	-0.053999	0.141122
0.131254	0.069205	-0.070135	0.154227
0.107688	0.052379	-0.057652	0.160307
0.107059	0.087015	-0.022378	0.158179
0.140693	0.075826	-0.067192	0.149544
0.145636	0.030421	-0.117531	0.138215
0.150558	0.053726	-0.093429	0.128503
0.166879	0.099776	-0.063713	0.123466
0.171711	0.082825	-0.091221	0.123819
0.165101	0.077363	-0.090064	0.127966
0.169937	0.043372	-0.123172	0.133070
0.151910	-0.019032	-0.173273	0.136610
0.151087	0.004476	-0.148933	0.137627
0.138845	0.016467	-0.118980	0.137065
0.120942	-0.011563	-0.134831	0.137112
0.148793	0.011916	-0.139195	0.139910
0.182239	0.041008	-0.143539	0.146300
0.141312	0.001459	-0.136443	0.155227
0.117683	-0.009377	-0.123664	0.164053
0.128411	0.002673	-0.128066	0.169668
0.127673	0.020385	-0.109607	0.169848
0.144068	0.038025	-0.108353	0.164286
0.154684	0.055592	-0.095682	0.154769
0.148124	0.095929	-0.048800	0.144430
0.164431	0.101838	-0.059212	0.136408
0.152118	0.079172	-0.075290	0.132584
0.145565	0.068018	-0.079881	0.132991
0.144747	0.085462	-0.061610	0.136127
0.126800	0.074282	-0.054833	0.139915
0.120346	0.023176	-0.099476	0.142770
0.108207	0.017962	-0.092542	0.144205
0.107537	0.012770	-0.097055	0.144745
0.118289	-0.015242	-0.135811	0.145295
0.117576	0.002545	-0.111592	0.146359
0.099734	0.037389	-0.064629	0.147568
0.070542	0.026409	-0.040699	0.147754
0.035760	0.026894	-0.011156	0.145519
0.052512	0.050219	0.001136	0.140003
0.063485	0.067738	0.007669	0.131413
0.040150	0.056634	0.014175	0.121021
0.028330	0.045575	0.014944	0.110589
0.045111	0.057403	0.015711	0.101512
0.033270	0.023500	-0.012076	0.094150
0.010057	0.001157	-0.005486	0.087734
0.009780	0.036009	0.023918	0.080877
-0.001917	0.042167	0.047492	0.072426
0.003565	0.054010	0.053839	0.062149
0.014734	0.140038	0.122973	0.050908
0.025858	0.088666	0.066198	0.040241
-0.003037	0.026084	0.032496	0.031596
-0.054655	-0.001980	0.050325	0.025635
-0.060378	-0.047060	0.005268	0.021981
-0.026106	-0.017720	0.011789	0.019499
-0.009105	0.022922	0.029705	0.016912
-0.020725	0.034845	0.053257	0.013354
-0.026587	0.035299	0.059583	0.008566
-0.015295	0.070014	0.083014	0.002711
-0.009759	0.098876	0.106349	-0.003929
-0.044218	0.053385	0.095326	-0.011084
-0.067115	-0.003340	0.067218	-0.018383
-0.067076	0.002981	0.067776	-0.025153
-0.067038	-0.002144	0.068332	-0.030417
-0.066999	0.004173	0.074596	-0.033210
-0.066960	-0.018086	0.046572	-0.033132
-0.072631	-0.051675	0.024374	-0.030816
-0.055437	-0.022311	0.030819	-0.027996
-0.049734	0.035484	0.082921	-0.027012
-0.055475	0.047361	0.100547	-0.029897
-0.044060	0.076319	0.118101	-0.037446
-0.026983	0.099449	0.124162	-0.048700
-0.021395	0.053960	0.073094	-0.061149
-0.032962	-0.031315	0.005105	-0.071575
-0.038771	-0.081978	-0.039763	-0.077190
-0.027424	-0.069619	-0.038765	-0.076604
-0.038966	-0.028758	0.007913	-0.070215
-0.061881	-0.022326	0.042980	-0.059944
-0.084701	0.001212	0.083614	-0.048468
-0.073166	0.053206	0.124081	-0.038332
-0.050257	0.042173	0.095858	-0.031273
-0.038862	-0.008787	0.027779	-0.027983
-0.056065	-0.042407	0.017082	-0.028280
-0.061777	-0.024495	0.034981	-0.031502
-0.044624	0.004765	0.041386	-0.036871
-0.056092	0.016775	0.070607	-0.043621
-0.084644	-0.005527	0.076867	-0.050917
-0.090237	-0.061998	0.025998	-0.057727
-0.050125	-0.026872	0.026731	-0.062884
-0.044438	0.002401	0.050302	-0.065396
-0.055905	-0.008418	0.045226	-0.064907
-0.067325	0.003649	0.068722	-0.062007
-0.038726	0.032798	0.069281	-0.058175
-0.004533	0.033276	0.035576	-0.055263
-0.027584	0.028043	0.053402	-0.054704
-0.033409	0.051382	0.088286	-0.056830
-0.033500	0.023233	0.054503	-0.060640
-0.056432	-0.044772	0.015149	-0.064157
-0.056428	-0.043974	0.015929	-0.065211
-0.045004	-0.026048	0.016706	-0.062324
-0.016495	0.008937	0.028901	-0.055330
-0.022364	0.066620	0.086729	-0.045539
-0.073892	0.026991	0.098637	-0.035360
-0.079527	-0.001055	0.076235	-0.027518
-0.068006	0.010987	0.076765	-0.024101
-0.073663	0.005849	0.077294	-0.025788
-0.085007	0.006443	0.089241	-0.031604
-0.079174	-0.027226	0.049746	-0.039355
-0.039101	0.007766	0.050385	-0.046602
-0.033455	0.054036	0.090995	-0.051712
-0.039252	0.020173	0.062914	-0.054483
-0.073576	-0.047814	0.023527	-0.056015
-0.090629	-0.035576	0.058537	-0.057910
-0.084770	0.039425	0.127665	-0.061226
-0.084645	0.068437	0.150827	-0.065753
-0.084520	0.017385	0.105369	-0.070027
-0.050132	-0.044877	0.008705	-0.072121
-0.033017	-0.078332	-0.047590	-0.070812
-0.010261	-0.077387	-0.063682	-0.066465
-0.044701	-0.047894	0.000238	-0.061094
-0.061870	-0.018520	0.046766	-0.057470
-0.056126	0.022155	0.075972	-0.057692
-0.027564	0.028402	0.059377	-0.061951
-0.039092	0.000361	0.037139	-0.068190
-0.067702	-0.038984	0.026414	-0.072925
-0.061934	-0.043906	0.015732	-0.072883
-0.056189	-0.043097	0.010806	-0.066640
-0.067597	-0.025159	0.045872	-0.055430
-0.078959	0.009837	0.092215	-0.042712
-0.073143	0.033270	0.109817	-0.032722
-0.055929	0.045186	0.098795	-0.028737
-0.050207	0.005660	0.059267	-0.031844
-0.073059	-0.016572	0.054162	-0.040691
-0.090106	-0.021581	0.066210	-0.052232
-0.078532	0.047665	0.129601	-0.063012
-0.067005	0.065234	0.129918	-0.070414
-0.049814	0.014208	0.067421	-0.073383
-0.044113	-0.042319	-0.000531	-0.072486
-0.061278	-0.018669	0.040292	-0.069410
-0.055530	0.010594	0.063817	-0.066184
-0.049805	0.005477	0.047274	-0.064407
-0.044104	0.011801	0.059350	-0.064700
-0.038426	0.029521	0.065667	-0.066558
-0.049902	-0.009935	0.043406	-0.068635
-0.067041	-0.032098	0.038368	-0.069365
-0.112660	-0.025618	0.084744	-0.067653
-0.095279	0.015099	0.108088	-0.063348
-0.066548	-0.007165	0.057103	-0.057314
-0.066485	-0.017916	0.046298	-0.051122
-0.055002	-0.011491	0.041249	-0.046539
-0.037855	0.040590	0.081903	-0.045035
-0.037909	0.035356	0.070997	-0.047405
-0.060804	0.018722	0.077267	-0.053534
-0.049343	0.047839	0.094932	-0.062299
-0.037928	0.076837	0.112525	-0.071673
-0.049402	0.105716	0.152887	-0.079128
-0.049407	0.100214	0.147400	-0.082323
-0.032282	0.060473	0.090542	-0.079911
-0.038067	0.049446	0.085309	-0.072128
-0.026698	0.095568	0.125781	-0.060864
-0.066768	0.130080	0.194638	-0.049085
-0.100963	0.101636	0.200399	-0.039807
-0.089335	0.061888	0.154742	-0.035019
-0.060623	0.050854	0.114981	-0.035042
-0.049159	0.068417	0.115356	-0.038596
-0.037742	0.068777	0.104308	-0.043555
-0.014951	0.052004	0.064753	-0.048029
0.024878	0.126666	0.105305	-0.051198
0.030282	0.143918	0.117139	-0.053466
-0.004310	0.081154	0.088952	-0.055839
-0.015918	0.087170	0.100852	-0.058907
-0.004638	0.104583	0.106993	-0.062022
-0.021955	0.070531	0.090268	-0.063190
-0.027781	0.042329	0.073611	-0.059848
-0.022162	-0.002889	0.017050	-0.050178
-0.027987	0.009182	0.040665	-0.034357
-0.045209	0.038335	0.081315	-0.015041
-0.056649	0.055949	0.110378	0.003244
-0.073753	-0.006455	0.065087	0.015632
-0.039393	-0.051471	-0.014279	0.018742
-0.045146	-0.039198	0.009465	0.011958
-0.050875	0.018707	0.073085	-0.002376
-0.045160	0.013562	0.056500	-0.019945
-0.045178	-0.008692	0.034273	-0.036132
-0.016644	0.009117	0.023558	-0.047624
-0.033910	0.032565	0.064280	-0.053272
-0.073946	-0.018318	0.053443	-0.053994
-0.073845	-0.051860	0.025519	-0.051889
-0.085165	-0.045292	0.043392	-0.049113
-0.090728	-0.027330	0.066903	-0.047024
-0.079136	-0.009440	0.067477	-0.045937
-0.067592	-0.014464	0.056627	-0.045486
-0.061804	-0.048019	0.011560	-0.045312
-0.067460	-0.075725	-0.010480	-0.045618
-0.061672	-0.029082	0.036094	-0.047248
-0.055908	-0.005471	0.053926	-0.051224
-0.084428	-0.027638	0.054555	-0.057994
-0.089990	-0.026873	0.060891	-0.066846
-0.084108	-0.037530	0.044360	-0.075879
-0.089670	-0.036723	0.050739	-0.082618
-0.066657	0.004054	0.068512	-0.085045
-0.072290	0.004692	0.080502	-0.082553
-0.066478	0.045301	0.115284	-0.076354
-0.054979	0.028640	0.081400	-0.069109
-0.072079	-0.073607	0.001972	-0.063891
-0.066267	-0.141173	-0.077131	-0.062917
-0.049057	-0.105674	-0.053122	-0.066604
-0.026208	-0.030347	-0.000659	-0.073384
-0.037713	0.033252	0.074431	-0.080361
-0.032041	-0.000485	0.035007	-0.084521
-0.020681	-0.039794	-0.021386	-0.083938
-0.026499	-0.061810	-0.037575	-0.078450
-0.032293	-0.055183	-0.025145	-0.069529
-0.032352	-0.031451	-0.001344	-0.059495
-0.020991	-0.036367	-0.023323	-0.050490
-0.015386	-0.012711	0.006181	-0.043708
0.024457	0.136476	0.109800	-0.039184
0.081268	0.250789	0.167311	-0.036125
0.120715	0.330370	0.207455	-0.033523
0.165709	0.472437	0.304537	-0.030665
0.216228	0.591077	0.372667	-0.027255
0.243696	0.640703	0.400544	-0.023104
0.259629	0.735803	0.479696	-0.017577
0.286916	0.824798	0.541390	-0.009185
0.296957	0.930552	0.631379	0.004372
0.289823	1.052997	0.766677	0.025574
0.265585	1.197773	0.935677	0.056056
0.224313	1.359078	1.132529	0.095612
0.194629	1.474028	1.277172	0.141701
0.170775	1.377214	1.204221	0.189715
0.129885	1.223682	1.091587	0.233978
0.043480	1.087900	1.042220	0.269086
-0.008310	0.924113	0.930233	0.291111
-0.065598	0.709598	0.778725	0.298274
-0.185465	0.524507	0.713486	0.290954
-0.333390	0.408694	0.739874	0.271117
-0.446446	0.333325	0.777569	0.241421
-0.484800	0.298234	0.780842	0.204276
-0.454470	0.303257	0.755543	0.161108
-0.412839	0.251154	0.661819	0.111985
-0.354245	0.176421	0.528501	0.055692
-0.295888	0.170518	0.464249	-0.009637
-0.220636	0.153216	0.371705	-0.085304
-0.162823	0.090302	0.250986	-0.170432
-0.145216	0.113300	0.256387	-0.260478
-0.116261	0.090521	0.210371	-0.346695
-0.081712	0.044993	0.130281	-0.417210
-0.070146	0.079596	0.147593	-0.459820
-0.058627	0.091216	0.153413	-0.465749
-0.058575	0.062816	0.119236	-0.432983
-0.047103	-0.005441	0.045226	-0.367757
-0.024256	-0.039155	-0.011350	-0.283384
-0.007213	-0.004207	0.000831	-0.196667
-0.013082	0.024888	0.035803	-0.123129
-0.018926	-0.008950	0.007819	-0.072790
-0.041878	-0.054069	-0.014340	-0.047954
-0.030473	-0.024769	0.003564	-0.043665
-0.007694	-0.001298	0.004265	-0.050435
0.014992	-0.000765	-0.017878	-0.058085
0.043294	0.016898	-0.022799	-0.059256
0.014378	0.011647	-0.004858	-0.051400
-0.003000	0.029259	0.035852	-0.036719
0.013955	-0.004593	-0.014971	-0.020308
0.013709	-0.032597	-0.042743	-0.007409
-0.009377	-0.020512	-0.007587	-0.001006
-0.015238	-0.031318	-0.012547	-0.000755
0.001767	-0.024949	-0.023196	-0.003579
0.035833	0.061340	0.029012	-0.005501
0.029787	0.015938	-0.016069	-0.003704
0.040896	-0.063540	-0.106647	0.002164
0.063380	-0.102719	-0.162590	0.010018
0.045798	-0.078924	-0.126938	0.016568
0.045420	-0.009542	-0.051458	0.019110
0.033621	0.013874	-0.021969	0.016973
0.027581	-0.002778	-0.038282	0.011947
0.044407	0.020610	-0.025976	0.007510
0.055453	0.043903	-0.013720	0.007230
0.055032	0.032838	-0.018645	0.013087
0.020351	0.021819	-0.000708	0.024500
0.037204	0.005135	-0.028526	0.038489
0.059698	-0.005770	-0.061940	0.050896
0.053548	-0.022341	-0.078085	0.058122
0.030292	0.001130	-0.031349	0.058569
0.035682	0.041635	0.003775	0.053176
0.058180	0.059133	-0.001216	0.044865
0.063455	0.025166	-0.034738	0.037220
0.068708	0.025601	-0.039571	0.033051
0.079648	0.071716	-0.010120	0.033434
0.079123	0.020567	-0.060735	0.037559
0.067178	-0.007531	-0.071169	0.043381
0.043860	-0.006962	-0.053007	0.048681
0.066321	0.062129	-0.000657	0.052084
0.077268	0.033861	-0.039887	0.053555
0.071038	-0.039973	-0.113216	0.054213
0.047702	-0.079243	-0.123431	0.055576
0.041593	-0.044116	-0.087919	0.058655
0.064059	0.036550	-0.029711	0.063366
0.080723	0.059782	-0.017422	0.068532
0.085896	0.014395	-0.073707	0.072462
0.068207	0.014877	-0.049817	0.073757
0.073430	0.043909	-0.031733	0.071939
0.124314	0.061401	-0.059406	0.067668
0.123596	0.061690	-0.058412	0.062484
0.100037	0.039137	-0.063132	0.058274
0.087996	0.033807	-0.056411	0.056651
0.098843	0.068471	-0.032585	0.058501
0.109646	0.102993	-0.008857	0.063813
0.103272	0.091690	-0.008066	0.071806
0.119764	0.074723	-0.047250	0.081233
0.124768	0.074956	-0.052011	0.090708
0.129749	0.046637	-0.085304	0.098958
0.106157	0.035564	-0.067065	0.105032
0.099792	0.035957	-0.066032	0.108465
0.122004	0.019218	-0.099263	0.109425
0.115572	0.031099	-0.086675	0.108711
0.103454	0.071483	-0.034164	0.107558
0.148489	0.100280	-0.050392	0.107213
0.170496	0.100408	-0.066553	0.108449
0.158150	0.089114	-0.071225	0.111237
0.162984	0.060735	-0.098719	0.114794
0.133535	0.026761	-0.108968	0.118009
0.121335	0.050030	-0.067780	0.120087
0.132026	0.090335	-0.043891	0.121074
0.148383	0.073371	-0.071492	0.121964
0.136119	0.016503	-0.121820	0.124236
0.152456	0.034103	-0.114838	0.129022
0.174434	0.040211	-0.130723	0.136310
0.162060	0.069134	-0.095150	0.144670
0.144024	0.109360	-0.031169	0.151726
0.160322	0.109448	-0.053104	0.155213
0.159421	0.046721	-0.114921	0.154111
0.141392	0.052775	-0.090828	0.149267
0.134855	0.041674	-0.089674	0.143143
0.151186	0.002066	-0.151336	0.138792
0.178868	-0.008828	-0.184193	0.138511
0.177884	0.020296	-0.159810	0.142825
0.194033	0.043590	-0.152656	0.150257
0.181563	0.021106	-0.156951	0.158005
0.163432	-0.029837	-0.195487	0.163197
0.145373	-0.023468	-0.165340	0.164187
0.127388	-0.022835	-0.146736	0.161307
0.132315	-0.010783	-0.139626	0.156729
0.131511	-0.015911	-0.143964	0.153467
0.147840	0.001823	-0.142573	0.153932
0.141260	0.013775	-0.129765	0.158702
0.146125	0.037099	-0.105587	0.166077
0.156680	0.094589	-0.058665	0.172693
0.150058	0.117582	-0.034776	0.174970
0.160594	0.089086	-0.068087	0.170742
0.171085	0.054997	-0.112682	0.160344
0.147269	0.066730	-0.077147	0.146631
0.129260	0.032731	-0.093150	0.133906
0.105612	0.027424	-0.080535	0.126245
0.093482	0.062111	-0.027998	0.125934
0.087110	0.068104	-0.021358	0.132659
0.080763	0.051231	-0.031875	0.143695
0.074442	0.040137	-0.030927	0.154926
0.068146	0.040509	-0.029983	0.162225
0.067585	0.012328	-0.051883	0.162682
0.072735	0.035656	-0.033721	0.155332
0.066444	0.070308	0.007210	0.141236
-0.008347	-0.009388	-0.003420	0.122995
-0.031438	-0.043074	-0.014006	0.103910
-0.020173	-0.002388	0.015425	0.087043
-0.014665	0.021001	0.033315	0.074428
0.002242	0.027164	0.028290	0.066576
0.013369	0.061852	0.046128	0.062372
0.007319	0.005034	-0.004631	0.059409
0.018424	-0.057262	-0.078023	0.054743
-0.016199	-0.022227	-0.008355	0.045965
-0.027839	0.001245	0.032477	0.032255
-0.033721	-0.055323	-0.023934	0.014985
-0.016738	-0.043135	-0.028720	-0.002534
-0.022665	-0.025286	-0.004935	-0.016195
-0.051409	0.003911	0.053016	-0.022759
-0.057195	0.010147	0.065047	-0.021309
-0.040115	-0.000773	0.042767	-0.013813
-0.034525	-0.023068	0.009157	-0.004460
-0.046089	-0.056692	-0.007183	0.001970
-0.069026	-0.061626	0.005096	0.001971
-0.063318	-0.020857	0.045876	-0.005410
-0.046212	-0.003095	0.046517	-0.018368
-0.040596	0.020304	0.058577	-0.033246
-0.046424	0.049319	0.093428	-0.046061
-0.040807	0.123896	0.168109	-0.054011
-0.029502	0.078251	0.111145	-0.056359
-0.029665	0.015662	0.042994	-0.054392
-0.046958	-0.006699	0.043646	-0.050576
-0.052759	0.028136	0.084268	-0.047339
-0.047115	-0.028537	0.016227	-0.046051
-0.058626	-0.062136	-0.005853	-0.046626
-0.035827	-0.015652	0.017842	-0.047850
-0.007411	0.024931	0.035729	-0.048200
-0.036214	-0.014596	0.019281	-0.046738
-0.047769	-0.013988	0.037163	-0.043623
-0.059276	-0.041935	0.014999	-0.040012
-0.036474	-0.064055	-0.029914	-0.037419
-0.025186	-0.080374	-0.051801	-0.036886
-0.025364	-0.033812	-0.005075	-0.038420
-0.031252	0.001140	0.030041	-0.041008
-0.019985	0.001687	0.019330	-0.043179
-0.003054	0.065045	0.065767	-0.043768
-0.020455	0.076751	0.094883	-0.042439
-0.054915	0.048437	0.101037	-0.039709
-0.049261	0.025948	0.072905	-0.036532
-0.032210	0.014973	0.050597	-0.033718
-0.043780	0.026884	0.068354	-0.031559
-0.061012	-0.035488	0.023224	-0.029836
-0.026781	-0.074763	-0.044562	-0.028174
-0.032663	-0.079614	-0.043545	-0.026500
-0.055651	-0.067313	-0.013981	-0.025274
-0.049993	-0.020799	0.032595	-0.025344
-0.072910	0.019814	0.090400	-0.027466
-0.067181	0.020288	0.090865	-0.031795
-0.061475	-0.019211	0.045646	-0.037625
-0.072923	-0.069969	0.006322	-0.043589
-0.055772	-0.051994	0.007132	-0.048238
-0.050111	0.028721	0.076463	-0.050722
-0.044474	0.086265	0.128378	-0.051208
-0.055990	0.006525	0.060164	-0.050807
-0.090301	-0.067178	0.026491	-0.051009
-0.090208	-0.072054	0.015798	-0.052915
-0.067274	-0.059778	0.010859	-0.056647
-0.061564	-0.053262	0.005941	-0.061250
-0.044457	-0.058193	-0.016087	-0.065166
-0.015999	-0.040261	-0.020894	-0.067054
-0.016209	0.000439	0.020002	-0.066525
-0.033550	0.001000	0.037890	-0.064365
-0.050819	-0.026992	0.027154	-0.062090
-0.073727	-0.014897	0.056433	-0.061029
-0.090831	-0.042823	0.051331	-0.061466
-0.085023	-0.053502	0.034829	-0.062343
-0.073528	-0.058428	0.012685	-0.061785
-0.056370	-0.034780	0.024894	-0.058220
-0.062122	0.005902	0.065604	-0.051521
-0.067851	-0.004975	0.060466	-0.043497
-0.084976	-0.044359	0.043927	-0.037369
-0.090611	-0.037898	0.056009	-0.036390
-0.079090	-0.002911	0.073751	-0.042235
-0.067616	0.031933	0.097130	-0.054006
-0.044769	0.003820	0.051890	-0.068400
-0.044856	0.027216	0.075359	-0.081021
-0.056363	0.090489	0.144414	-0.088221
-0.056401	0.130660	0.190344	-0.088562
-0.073571	0.067881	0.144720	-0.083213
-0.073539	-0.034614	0.036469	-0.075147
-0.044954	-0.102427	-0.054207	-0.067628
-0.056459	-0.147119	-0.093119	-0.062800
-0.062206	-0.151654	-0.091897	-0.061037
-0.056509	-0.059094	-0.005025	-0.061249
-0.062255	0.021667	0.081492	-0.061817
-0.073688	0.010733	0.082000	-0.061556
-0.056522	-0.051550	0.002561	-0.060222
-0.056557	-0.045052	0.009103	-0.058410
-0.068012	0.001391	0.072722	-0.057041
-0.067999	0.053356	0.124659	-0.056796
-0.045144	0.065135	0.107859	-0.057793
-0.033804	0.048313	0.085417	-0.059609
-0.033930	0.037271	0.068778	-0.061546
-0.034056	0.106219	0.137861	-0.062960
-0.022760	0.129201	0.149557	-0.063482
-0.062904	0.049303	0.115522	-0.063034
-0.062911	0.066807	0.127309	-0.061687
-0.062917	0.067108	0.127626	-0.059476
-0.068633	0.044567	0.110810	-0.056336
-0.040064	0.039249	0.076932	-0.052222
-0.011611	0.062504	0.071744	-0.047365
0.011015	0.074243	0.066577	-0.042488
-0.000714	0.097355	0.101404	-0.038761
-0.018106	0.143212	0.164639	-0.037416
-0.012585	0.183170	0.193352	-0.039105
-0.018507	0.097337	0.119161	-0.043298
-0.012984	0.051827	0.068114	-0.048122
-0.001774	0.075027	0.080090	-0.050847
-0.019162	0.046739	0.069176	-0.048951
-0.036478	0.018566	0.052596	-0.041312
-0.002330	0.047613	0.047504	-0.028932
0.008836	0.065119	0.059564	-0.014771
-0.002885	0.054002	0.054444	-0.002682
-0.048819	0.042931	0.095027	0.004075
-0.071725	0.003353	0.072631	0.004098
-0.054563	-0.024641	0.033195	-0.001666
-0.031762	0.016003	0.051024	-0.010395
-0.014764	0.005088	0.017387	-0.018604
-0.014966	0.005639	0.018150	-0.023607
-0.043720	0.006188	0.047462	-0.024604
-0.095196	-0.044658	0.053813	-0.022891
-0.083648	-0.049613	0.037296	-0.021092
-0.089278	-0.043125	0.043689	-0.021753
-0.077752	-0.082347	-0.007048	-0.026031
-0.071984	-0.030041	0.033789	-0.033197
-0.054819	-0.046473	0.011645	-0.041193
-0.020592	-0.045706	-0.027539	-0.047907
-0.037899	-0.033521	0.007673	-0.052375
-0.077975	-0.044226	0.031320	-0.055195
-0.083626	-0.054887	0.026319	-0.057945
-0.077831	-0.036952	0.038470	-0.061976
-0.077771	-0.007669	0.067702	-0.067345
-0.077710	-0.018478	0.062552	-0.072569
-0.066228	-0.046373	0.023162	-0.075381
-0.049083	-0.011339	0.035325	-0.074092
-0.026297	-0.010711	0.018888	-0.068761
-0.043577	-0.021505	0.025360	-0.061460
-0.066496	-0.003703	0.060357	-0.055429
-0.083610	-0.008815	0.072369	-0.053519
-0.089233	-0.025326	0.067201	-0.056726
-0.083412	-0.064610	0.022082	-0.063592
-0.060483	-0.018077	0.045672	-0.070811
-0.043358	0.039686	0.086296	-0.074799
-0.049145	-0.034125	0.012547	-0.073462
-0.066328	-0.096213	-0.026637	-0.067281
-0.054888	-0.066680	-0.008557	-0.059133
-0.043495	-0.048687	-0.007681	-0.052905
-0.060701	-0.076450	-0.012519	-0.051590
-0.077835	-0.075547	0.005505	-0.055816
-0.054926	-0.057516	0.000614	-0.063548
-0.020691	-0.050978	-0.027098	-0.071088
-0.003726	-0.067307	-0.060405	-0.074839
0.018879	-0.043597	-0.059313	-0.072948
0.007130	0.014279	0.010298	-0.066048
-0.015992	0.083339	0.096757	-0.056790
0.012373	0.186377	0.171440	-0.048415
0.046332	0.346096	0.297209	-0.043106
0.080152	0.430923	0.353937	-0.040918
0.136673	0.452586	0.313354	-0.039829
0.175831	0.565522	0.392853	-0.036842
0.220537	0.746514	0.529126	-0.029510
0.259347	0.852526	0.590603	-0.017043
0.269445	0.900993	0.634693	-0.000401
0.262368	0.932123	0.672886	0.018630
0.255317	0.963118	0.705208	0.038767
0.208321	1.033950	0.823047	0.060189
0.155805	1.138746	0.986079	0.084494
0.132055	1.260234	1.131304	0.113637
0.119821	1.289850	1.173140	0.148344
0.096215	1.165154	1.072037	0.186793
0.021312	1.006698	0.982760	0.224285
-0.058994	0.848883	0.899551	0.254169
-0.127551	0.663156	0.788124	0.269771
-0.241508	0.506736	0.745672	0.266606
-0.389259	0.442317	0.829014	0.243955
-0.496429	0.435263	0.929139	0.205076
-0.523212	0.388261	0.908930	0.155860
-0.487067	0.387131	0.877376	0.102390
-0.405384	0.323189	0.726027	0.048422
-0.335453	0.213824	0.546741	-0.006101
-0.288647	0.133457	0.419578	-0.064695
-0.247741	0.081970	0.332905	-0.132062
-0.246972	0.099217	0.343659	-0.210678
-0.223364	0.076421	0.302975	-0.297671
-0.165588	0.070848	0.239613	-0.383604
-0.119469	0.116691	0.233612	-0.454151
-0.084958	0.099531	0.187662	-0.494462
-0.079139	0.065310	0.147609	-0.494640
-0.073344	0.088333	0.159113	-0.454023
-0.067572	0.156942	0.221960	-0.382230
-0.044693	0.031119	0.078978	-0.296316
-0.016196	-0.111320	-0.091971	-0.215098
0.012183	-0.098996	-0.108040	-0.153019
0.011895	-0.029618	-0.038387	-0.116058
-0.005523	-0.029047	-0.026122	-0.101143
-0.028580	-0.074162	-0.048169	-0.098929
-0.034412	-0.113380	-0.081546	-0.098390
-0.005958	-0.078202	-0.069102	-0.091185
-0.011882	-0.066009	-0.056708	-0.074196
0.010769	-0.025314	-0.032944	-0.049665
0.004776	-0.001916	-0.009276	-0.023353
-0.018324	-0.018585	0.002874	-0.001782
-0.012777	0.050468	0.060657	0.010342
0.009878	0.073556	0.066811	0.011676
-0.007533	-0.006237	-0.001295	0.004409
0.003680	-0.017179	-0.017729	-0.006849
0.003425	-0.056627	-0.056937	-0.016922
0.008882	-0.073072	-0.084562	-0.021945
0.031447	-0.055187	-0.089232	-0.020556
0.042499	0.014019	-0.025358	-0.014011
0.013533	0.008706	-0.007428	-0.005287
-0.009604	-0.036556	-0.023833	0.002373
-0.026937	-0.030240	-0.005908	0.006824
-0.004226	-0.012529	-0.010898	0.007754
-0.004449	0.010821	0.012685	0.006546
0.006749	-0.040160	-0.043773	0.005381
0.023611	-0.050958	-0.071447	0.006018
0.034694	-0.016030	-0.047615	0.008834
0.045730	-0.021216	-0.063851	0.012610
0.028170	-0.043512	-0.074310	0.015182
0.016391	0.019939	0.006640	0.014656
0.016081	0.020316	0.007314	0.010569
0.027193	-0.002149	-0.026277	0.004372
0.038259	-0.013102	-0.054018	-0.001042
0.032148	-0.041140	-0.070225	-0.002602
0.020351	0.039433	0.016421	0.001481
0.042864	0.085414	0.045609	0.010783
0.059575	0.011289	-0.050950	0.022720
0.030533	-0.073953	-0.101429	0.033609
-0.009810	-0.044638	-0.037495	0.040221
-0.004306	0.018819	0.020468	0.041109
0.041148	0.030623	-0.007461	0.037121
0.057864	0.053800	-0.006724	0.030883
0.045959	0.036909	-0.011700	0.025537
0.062653	0.031507	-0.028075	0.023316
0.079279	0.043259	-0.038673	0.024640
0.067285	0.077803	0.007876	0.028144
0.061049	0.072234	0.008553	0.031630
0.071968	0.078107	0.009227	0.033394
0.060002	0.141059	0.084132	0.033224
0.036663	0.038153	-0.001158	0.032540
0.036260	-0.007229	-0.046127	0.033614
0.052989	-0.006742	-0.062359	0.038300
0.069650	0.050847	-0.015711	0.046926
0.080531	0.062517	-0.020646	0.057915
0.097077	0.005614	-0.088373	0.068294
0.067872	-0.011082	-0.081589	0.074874
0.061627	0.040813	-0.017728	0.075596
0.083958	0.052524	-0.034072	0.070465
0.089066	0.035635	-0.050349	0.061689
0.111284	0.070207	-0.038007	0.052926
0.144829	0.070376	-0.071397	0.047898
0.138264	0.059123	-0.081809	0.048955
0.108884	0.042205	-0.069335	0.056198
0.091043	0.076750	-0.016940	0.067574
0.067564	0.036918	-0.027572	0.079907
0.067021	0.002959	-0.061001	0.090355
0.083612	0.043374	-0.042900	0.097548
0.088712	0.020810	-0.064845	0.101853
0.093791	0.044020	-0.046726	0.104666
0.110269	0.072846	-0.040102	0.107207
0.109547	0.027319	-0.079187	0.109571
0.120248	0.021951	-0.100980	0.110610
0.113773	0.010894	-0.105551	0.108721
0.113034	0.011303	-0.104392	0.103062
0.129427	0.068814	-0.057554	0.094465
0.128621	0.143219	0.011934	0.085480
0.150659	0.137375	-0.010228	0.079474
0.155474	0.108712	-0.049429	0.079209
0.160267	0.034483	-0.128441	0.085611
0.153619	0.017661	-0.138605	0.097328
0.146997	-0.010512	-0.154435	0.111298
0.128979	-0.055701	-0.187330	0.124046
0.122455	-0.043601	-0.162986	0.133091
0.138798	0.002712	-0.133029	0.137799
0.132231	0.014573	-0.114613	0.139345
0.114269	0.003545	-0.107693	0.139838
0.113511	-0.007438	-0.123641	0.141109
0.135595	-0.012666	-0.150943	0.143761
0.146168	-0.000741	-0.149580	0.146943
0.128144	0.005425	-0.125380	0.148897
0.121613	0.034407	-0.089857	0.147950
0.086556	0.029009	-0.060188	0.143437
0.091614	0.029342	-0.059192	0.136123
0.119492	-0.004587	-0.121013	0.127963
0.118703	0.024435	-0.091214	0.121302
0.100785	0.076181	-0.027274	0.117877
0.088649	0.110583	0.024984	0.118051
0.082273	0.104870	0.019925	0.120626
0.075922	0.047788	-0.030796	0.123364
0.058175	-0.009060	-0.064178	0.123990
0.069052	-0.037125	-0.108842	0.121188
0.074174	-0.013680	-0.090509	0.115103
0.062142	0.055351	-0.009437	0.107128
0.055870	0.084126	0.031332	0.099116
0.043912	0.009998	-0.030852	0.092476
0.020582	-0.058117	-0.075649	0.087610
0.008768	-0.063138	-0.074580	0.083932
-0.002998	-0.045297	-0.044963	0.080363
-0.003296	0.001023	0.001665	0.075968
0.013539	0.024313	0.008130	0.070360
0.013173	0.018955	0.008859	0.063690
-0.015742	0.059302	0.078108	0.056334
-0.033119	0.065221	0.101391	0.048518
-0.050425	0.071115	0.124578	0.040185
-0.050529	0.048434	0.101987	0.031169
-0.062052	-0.025548	0.039516	0.021518
-0.056397	-0.042123	0.011562	0.011700
-0.045055	-0.035789	0.012275	0.002475
-0.079442	0.016202	0.092929	-0.005524
-0.079425	0.016588	0.099019	-0.012221
-0.056566	-0.045842	0.013718	-0.018243
-0.028091	-0.028071	0.003001	-0.024632
-0.051125	-0.038923	0.009459	-0.032270
-0.068354	-0.021180	0.044442	-0.041335
-0.085512	-0.032060	0.056440	-0.051083
-0.091179	-0.042895	0.045549	-0.060066
-0.085401	-0.036555	0.046122	-0.066659
-0.073937	-0.013109	0.063824	-0.069691
-0.045387	0.033083	0.075743	-0.068951
-0.034086	0.079085	0.110453	-0.065395
-0.062802	0.113477	0.179283	-0.060944
-0.097112	0.027811	0.122203	-0.057870
-0.097018	0.005310	0.105329	-0.057930
-0.085503	0.000031	0.082812	-0.061578
-0.051194	-0.022356	0.031836	-0.067661
-0.056997	0.001031	0.055303	-0.073841
-0.057065	0.035743	0.090094	-0.077656
-0.045713	0.036051	0.084770	-0.077710
-0.045827	0.002095	0.050916	-0.074371
-0.085913	0.025382	0.114275	-0.069553
-0.102993	0.048573	0.148823	-0.065671
-0.085740	-0.002565	0.086153	-0.064367
-0.051427	-0.047783	0.006609	-0.065686
-0.040095	-0.024292	0.018755	-0.068187
-0.017389	0.016235	0.030853	-0.069868
-0.006196	0.005202	0.014348	-0.069391
-0.052153	-0.017205	0.032174	-0.066844
-0.092211	-0.010969	0.078478	-0.063612
-0.109262	0.000952	0.107462	-0.061409
-0.114823	0.001403	0.119195	-0.061091
-0.091808	0.093218	0.182272	-0.062012
-0.074598	0.121843	0.199407	-0.062387
-0.057457	-0.038091	0.022319	-0.060527
-0.063228	-0.088873	-0.028416	-0.056200
-0.068974	-0.013820	0.052395	-0.051233
-0.080407	-0.001887	0.081482	-0.048864
-0.074662	-0.029975	0.047636	-0.052068
-0.074650	-0.052237	0.025348	-0.061745
-0.091769	-0.074407	0.020284	-0.075828
-0.074555	-0.016542	0.055212	-0.089870
-0.040280	0.001115	0.044315	-0.098915
-0.046117	-0.026984	0.016331	-0.099727
-0.051931	0.002137	0.051275	-0.092278
-0.057720	-0.008834	0.046104	-0.079754
-0.080616	-0.031181	0.052375	-0.067094
-0.109128	0.009378	0.121433	-0.058784
-0.097551	0.004089	0.098843	-0.056959
-0.086020	-0.018310	0.064924	-0.060697
-0.085957	-0.012065	0.071116	-0.066790
-0.057341	0.045547	0.100123	-0.071543
-0.040263	0.085792	0.129012	-0.072674
-0.068938	0.051638	0.117808	-0.070367
-0.068943	-0.010929	0.060968	-0.066973
-0.068947	-0.061818	0.010070	-0.065567
-0.051821	-0.043974	0.005064	-0.068154
-0.080446	-0.031913	0.045761	-0.074464
-0.091823	-0.042743	0.046319	-0.081974
-0.046049	-0.007845	0.035454	-0.087123
-0.034725	0.049751	0.081736	-0.087086
-0.074840	0.072850	0.144960	-0.081191
-0.086238	0.084432	0.167951	-0.071299
-0.103300	0.027443	0.128034	-0.060972
-0.114580	-0.023603	0.093990	-0.053884
-0.102972	-0.045887	0.060084	-0.052230
-0.079991	-0.028108	0.049159	-0.055919
-0.079944	-0.010401	0.066830	-0.062888
-0.079897	-0.027028	0.055876	-0.070319
-0.068429	-0.026456	0.039257	-0.076068
-0.068428	-0.020175	0.051258	-0.079543
-0.074137	-0.036761	0.034657	-0.081621
-0.091243	-0.081831	0.006704	-0.083747
-0.102568	-0.086742	0.018838	-0.086820
-0.096714	-0.000268	0.093736	-0.090512
-0.085174	0.017328	0.105513	-0.093396
-0.050839	0.012011	0.060138	-0.093784
-0.056617	-0.021835	0.032080	-0.090788
-0.119474	-0.038412	0.084080	-0.085010
-0.130680	-0.032079	0.101606	-0.078447
-0.084735	0.014201	0.096218	-0.073637
-0.056110	0.077422	0.130824	-0.072461
-0.050442	0.117542	0.170997	-0.075251
-0.061928	0.071842	0.136771	-0.080696
-0.056236	-0.013643	0.045581	-0.086558
-0.056277	-0.110198	-0.050946	-0.090756
-0.050608	-0.046468	0.001391	-0.092171
-0.056382	-0.022971	0.036383	-0.090801
-0.073552	0.006141	0.082652	-0.087339
-0.062101	0.023713	0.088760	-0.082576
-0.079247	-0.044442	0.037738	-0.077030
-0.113453	-0.055214	0.055450	-0.070968
-0.084705	-0.008839	0.078799	-0.064688
-0.078916	0.054479	0.130603	-0.058808
-0.084570	0.077564	0.165063	-0.054322
-0.107332	0.106264	0.210802	-0.052371
-0.101448	0.083453	0.187828	-0.053834
-0.067035	0.049315	0.113554	-0.058922
-0.055605	0.083840	0.142370	-0.066966
-0.061352	0.141064	0.205328	-0.076499
-0.067075	0.140949	0.205213	-0.085645
-0.055643	0.100862	0.153705	-0.092646
-0.044258	0.106621	0.153799	-0.096331
-0.050050	0.055252	0.102499	-0.096326
-0.055818	0.055486	0.114223	-0.092990
-0.084403	0.101401	0.183000	-0.087156
-0.101450	0.084314	0.188681	-0.079851
-0.101295	0.073007	0.171496	-0.072086
-0.072589	0.050325	0.125829	-0.064759
-0.044000	0.084839	0.126030	-0.058664
-0.004107	0.124921	0.126230	-0.054534
0.012781	0.153417	0.143560	-0.053040
-0.010372	0.124693	0.137976	-0.054657
-0.039141	0.078954	0.115283	-0.059332
-0.027819	0.016271	0.046999	-0.066094
-0.010834	-0.011894	0.001837	-0.072856
0.000371	0.034292	0.036804	-0.076710
0.011531	0.068867	0.054497	-0.074817
-0.011617	0.069038	0.077827	-0.065627
-0.074643	0.046367	0.118193	-0.049857
-0.091728	-0.027604	0.061317	-0.030610
-0.091611	-0.032748	0.056066	-0.012425
-0.097204	0.047784	0.142202	0.000365
-0.085642	-0.003352	0.079516	0.005182
-0.085548	-0.048567	0.039927	0.001880
-0.079744	-0.025073	0.051893	-0.007687
-0.085383	0.004035	0.080941	-0.020851
-0.073867	0.004473	0.081318	-0.035310
-0.062399	-0.052194	0.007459	-0.049711
-0.056687	-0.062946	-0.008994	-0.063465
-0.073839	-0.010840	0.060275	-0.076124
-0.096631	0.012501	0.106419	-0.086856
-0.056515	0.047168	0.106691	-0.094382
-0.056536	0.053140	0.112671	-0.097427
-0.050846	-0.026567	0.021551	-0.095394
-0.068020	-0.048844	0.016458	-0.088884
-0.079413	-0.071029	0.011387	-0.079734
-0.090758	-0.036019	0.057729	-0.070499
-0.096347	0.015978	0.109592	-0.063578
-0.084780	-0.006471	0.081297	-0.060367
-0.101812	-0.057380	0.041697	-0.060841
-0.118774	-0.085239	0.036520	-0.063786
-0.089982	-0.050169	0.042786	-0.067533
-0.078439	0.013309	0.088998	-0.070813
-0.061232	0.025135	0.089337	-0.073298
-0.032675	0.059753	0.095385	-0.075587
-0.067048	0.048546	0.118539	-0.078682
-0.101280	-0.002587	0.101625	-0.083247
-0.078267	-0.002118	0.079069	-0.089016
-0.043928	0.061163	0.107997	-0.094634
-0.032570	0.089923	0.125386	-0.098070
-0.044100	-0.001353	0.039918	-0.097452
-0.061292	-0.115096	-0.056622	-0.091998
-0.078414	-0.097034	-0.021428	-0.082556
-0.072624	-0.067625	0.002202	-0.071422
-0.061147	-0.112570	-0.054210	-0.061447
-0.044006	-0.077386	-0.036155	-0.054873
-0.055486	-0.030924	0.021798	-0.052497
-0.026947	0.043900	0.073803	-0.053566
0.001475	0.067024	0.068492	-0.056379
0.018361	0.192838	0.177409	-0.059176
0.069438	0.335267	0.263037	-0.060813
0.120306	0.420006	0.302629	-0.060905
0.153834	0.578629	0.422002	-0.059485
0.204353	0.679494	0.472358	-0.056449
0.231823	0.745679	0.516794	-0.051121
0.236337	0.840138	0.606726	-0.042173
0.235119	0.939913	0.707706	-0.027913
0.228195	1.067823	0.836818	-0.006820
0.204166	1.172359	0.965394	0.021854
0.145971	1.236485	1.093435	0.057618
0.099435	1.431675	1.329439	0.098513
0.087350	1.528979	1.438838	0.141193
0.092444	1.357486	1.262261	0.181326
0.034703	1.146712	1.109239	0.214238
-0.039932	1.050998	1.088171	0.235711
-0.114262	0.841460	0.952974	0.242779
-0.216838	0.627064	0.846875	0.234369
-0.347543	0.516327	0.861120	0.211609
-0.477711	0.446010	0.920981	0.177589
-0.504555	0.450212	0.952039	0.136481
-0.457051	0.460104	0.914437	0.092123
-0.421159	0.361455	0.779906	0.046508
-0.379700	0.240365	0.617369	-0.001154
-0.298436	0.142611	0.438361	-0.054173
-0.240343	0.090939	0.328606	-0.116669
-0.228169	0.085160	0.310663	-0.190828
-0.187491	0.079403	0.269950	-0.274214
-0.152689	0.085091	0.235112	-0.358503
-0.112317	0.027940	0.143311	-0.430636
-0.089242	-0.006135	0.086147	-0.476388
-0.094811	0.068425	0.166264	-0.485175
-0.071806	0.171231	0.240341	-0.454194
-0.026053	0.142277	0.171354	-0.390075
-0.014749	0.056337	0.068387	-0.307193
-0.037753	0.010721	0.051496	-0.223227
-0.037821	0.005263	0.046094	-0.153661
-0.026468	-0.005882	0.023583	-0.107355
-0.049424	0.000149	0.052557	-0.084758
-0.095126	-0.022396	0.069991	-0.079203
-0.089248	-0.033428	0.053091	-0.080522
-0.066262	0.012688	0.081943	-0.079391
-0.037659	0.047195	0.087834	-0.070732
-0.026304	0.053008	0.082279	-0.054996
-0.037837	0.001694	0.036775	-0.037119
-0.055033	0.013403	0.065691	-0.023793
-0.055027	-0.009198	0.043095	-0.020283
-0.049310	-0.060257	-0.013671	-0.028055
-0.015065	-0.014032	0.004029	-0.044110
-0.026642	-0.019389	0.010237	-0.062219
-0.043882	-0.058986	-0.012132	-0.075498
-0.043920	-0.069868	-0.028700	-0.079173
-0.038248	-0.017893	0.017614	-0.072356
-0.026888	0.045291	0.069449	-0.058102
-0.021284	0.016851	0.041126	-0.041848
0.007137	-0.000053	-0.004212	-0.029048
0.024022	-0.011177	-0.037944	-0.023086
0.017996	-0.005125	-0.020144	-0.024292
-0.005137	0.006613	0.014713	-0.030265
-0.016754	0.012592	0.026587	-0.037145
-0.005483	0.012836	0.015570	-0.041175
0.005743	0.047341	0.038860	-0.039936
-0.000209	0.087415	0.084896	-0.032940
0.005285	0.104482	0.096480	-0.021560
-0.000665	0.058665	0.056624	-0.008453
-0.000880	0.053007	0.051192	0.003299
0.027457	0.070213	0.040071	0.011113
0.032837	0.093059	0.063258	0.013667
0.003932	0.064417	0.057797	0.011261
0.003697	0.018760	0.012386	0.005660
0.014884	-0.015289	-0.027128	-0.000545
0.026025	-0.032067	-0.055060	-0.004815
0.014278	0.031168	0.014198	-0.005477
0.019711	0.099854	0.083172	-0.002197
0.036541	0.122575	0.083339	0.004013
0.064723	0.105229	0.043533	0.011247
0.064238	0.087954	0.026730	0.017434
0.046622	0.099300	0.049969	0.021097
0.057631	0.059206	-0.001123	0.021875
0.062883	0.059248	-0.006322	0.020628
0.096664	0.122103	0.028471	0.019116
0.113176	0.144726	0.028861	0.019339
0.106777	0.104443	-0.005014	0.022802
0.077563	0.075743	0.001222	0.029949
0.065598	0.092844	0.024564	0.040029
0.076523	0.166976	0.093492	0.051442
0.087403	0.115177	0.025090	0.062432
0.081106	0.092140	0.008360	0.071748
0.103386	0.132010	0.025961	0.078941
0.097022	0.097481	-0.002193	0.084200
0.102104	0.085934	-0.018811	0.087892
0.124295	0.131537	0.010321	0.090186
0.123553	0.171241	0.045044	0.091001
0.151364	0.187940	0.033942	0.090291
0.167640	0.164597	0.000044	0.088436
0.166716	0.158479	-0.005163	0.086428
0.182926	0.186646	0.001071	0.085713
0.227619	0.226117	0.001570	0.087746
0.243575	0.265424	0.024907	0.093480
0.225203	0.276016	0.048149	0.103056
0.218324	0.297983	0.077006	0.115812
0.240023	0.302726	0.065771	0.130593
0.244500	0.250344	0.003189	0.146209
0.266087	0.226726	-0.036296	0.161819
0.259032	0.260306	0.004326	0.177042
0.257714	0.293746	0.039071	0.191786
0.279241	0.304205	0.027991	0.205920
0.294966	0.303198	0.011245	0.219038
0.310625	0.279351	-0.033983	0.230499
0.309085	0.267020	-0.039054	0.239713
0.284708	0.249027	-0.032683	0.246508
0.266139	0.231105	-0.032048	0.251356
0.270485	0.218965	-0.054257	0.255329
0.257679	0.218293	-0.036403	0.259762
0.262055	0.280435	0.021351	0.265739
0.289251	0.279507	-0.012496	0.273580
0.287782	0.238608	-0.051916	0.282532
0.269186	0.197874	-0.068332	0.290851
0.233533	0.180146	-0.056129	0.296343
0.215154	0.191041	-0.021135	0.297212
0.208269	0.201890	-0.009125	0.292901
0.195701	0.229823	0.031388	0.284487
0.206023	0.200536	-0.008210	0.274368
0.227722	0.205630	-0.024805	0.265275
0.220778	0.244962	0.027193	0.259027
0.213861	0.289842	0.078977	0.255661
0.189839	0.288852	0.101996	0.253425
0.183044	0.242182	0.062107	0.249707
0.153435	0.212831	0.056643	0.242456
0.141076	0.223571	0.085463	0.231373
0.163029	0.228554	0.062770	0.218206
0.184890	0.227804	0.040170	0.205955
0.172398	0.232766	0.063345	0.197384
0.165666	0.237705	0.075004	0.193587
0.158959	0.242622	0.080904	0.193388
0.135148	0.241806	0.103910	0.193908
0.122854	0.263832	0.138241	0.192021
0.104899	0.200111	0.098197	0.185950
0.092726	0.119519	0.024054	0.176151
0.092023	0.113489	0.018738	0.165027
0.097032	0.187427	0.087677	0.155626
0.084889	0.152564	0.070679	0.150010
0.078505	0.163525	0.082301	0.148147
0.077856	0.134468	0.053903	0.147868
0.082920	0.099818	0.014200	0.145911
0.047990	0.071019	0.026052	0.139504
0.024623	0.093729	0.066407	0.127716
0.012771	0.156319	0.146568	0.111939
0.018100	0.150126	0.135034	0.095289
0.057667	0.143957	0.089285	0.081241
0.091362	0.143522	0.055143	0.072110
0.096367	0.165929	0.072533	0.068079
0.084218	0.199663	0.118402	0.067182
0.077829	0.170444	0.095559	0.066301
0.071466	0.147053	0.078519	0.062742
0.076548	0.163728	0.090100	0.055695
0.110160	0.180334	0.067370	0.046843
0.120792	0.208290	0.090415	0.039740
0.154221	0.253260	0.096235	0.038180
0.164670	0.263783	0.096319	0.044326
0.146523	0.262839	0.113533	0.057553
0.134159	0.273316	0.142096	0.074616
0.138976	0.272328	0.130568	0.091114
0.132350	0.259921	0.124797	0.103494
0.131461	0.270403	0.136179	0.110582
0.136285	0.286550	0.147513	0.113868
0.123956	0.262656	0.141669	0.116441
0.105967	0.227437	0.124427	0.121178
0.070919	0.163809	0.090123	0.129161
0.058855	0.111859	0.050249	0.139099
0.018288	0.140066	0.119033	0.147989
-0.004982	0.151025	0.158983	0.152558
-0.016736	0.042021	0.061720	0.150711
-0.056993	-0.032275	0.021958	0.142256
-0.039983	-0.020613	0.022332	0.128656
0.016931	0.030974	0.016992	0.112057
0.016507	0.002405	-0.011166	0.094185
-0.023887	0.013924	0.040735	0.075710
-0.035564	0.053948	0.086712	0.056366
-0.018641	0.048124	0.063977	0.035722
-0.007499	0.019482	0.024203	0.014148
0.003598	0.042350	0.035985	-0.006624
0.003229	0.053703	0.047718	-0.023757
-0.002849	0.019326	0.025141	-0.034369
-0.003193	-0.026331	-0.020186	-0.036865
-0.014955	-0.037540	-0.019644	-0.031838
-0.015249	-0.031571	-0.019104	-0.022001
-0.009832	-0.037048	-0.024277	-0.011172
-0.015857	-0.076764	-0.057980	-0.002817
-0.056120	-0.127738	-0.074414	0.001135
-0.096218	-0.172792	-0.079359	0.000707
-0.096178	-0.166267	-0.067153	-0.002584
-0.079007	-0.148347	-0.066417	-0.006716
-0.090458	-0.181893	-0.088524	-0.010211
-0.067599	-0.163907	-0.099120	-0.012811
-0.039123	-0.128863	-0.086830	-0.015552
-0.079288	-0.111092	-0.034618	-0.020250
-0.096446	-0.116235	-0.016882	-0.028591
-0.102113	-0.115646	-0.016349	-0.041163
-0.113466	-0.126479	-0.010107	-0.056864
-0.107641	-0.120136	-0.015312	-0.072988
-0.136101	-0.130950	0.008056	-0.086092
-0.164443	-0.181690	-0.020065	-0.093356
-0.198378	-0.289324	-0.088043	-0.093865
-0.226463	-0.350833	-0.121480	-0.089196
-0.220169	-0.292171	-0.069124	-0.082993
-0.213899	-0.245168	-0.034113	-0.079675
-0.224784	-0.289720	-0.067769	-0.082877
-0.224202	-0.305536	-0.084156	-0.094278
-0.223621	-0.275602	-0.054793	-0.113242
-0.205910	-0.240079	-0.036970	-0.137274
-0.205400	-0.273223	-0.070612	-0.162957
-0.210602	-0.289099	-0.075565	-0.186926
-0.250042	-0.333459	-0.086208	-0.206588
-0.266478	-0.354793	-0.085385	-0.220463
-0.265713	-0.318934	-0.050303	-0.228203
-0.242108	-0.294640	-0.049627	-0.230425
-0.241439	-0.276154	-0.031822	-0.228498
-0.246481	-0.320555	-0.076904	-0.224333
-0.240080	-0.387613	-0.144641	-0.220155
-0.250835	-0.437262	-0.183548	-0.218138
-0.312936	-0.446732	-0.130930	-0.219891
-0.397622	-0.473291	-0.072815	-0.225902
-0.413434	-0.442634	-0.032069	-0.235240
-0.354943	-0.383548	-0.031462	-0.245796
-0.296689	-0.336121	-0.036568	-0.255140
-0.221541	-0.260335	-0.035942	-0.261742
-0.186671	-0.247670	-0.063870	-0.265990
-0.203335	-0.263607	-0.057421	-0.270325
-0.197088	-0.285187	-0.085261	-0.278147
-0.173734	-0.272414	-0.095854	-0.291737
-0.167606	-0.271113	-0.100693	-0.310196
-0.184342	-0.195580	-0.014147	-0.328633
-0.195298	-0.188879	0.009231	-0.339395
-0.206208	-0.216467	-0.007458	-0.335078
-0.177099	-0.249649	-0.075472	-0.312022
-0.148109	-0.242722	-0.091815	-0.272574
-0.182049	-0.230111	-0.050986	-0.224909
-0.170166	-0.251812	-0.084558	-0.180371
-0.146910	-0.210609	-0.066600	-0.149411
-0.158010	-0.169573	-0.008742	-0.137844
-0.169063	-0.151545	0.014617	-0.144941
-0.180070	-0.127879	0.049300	-0.164070
-0.196741	-0.110020	0.089551	-0.185501
-0.201921	-0.149336	0.055403	-0.200165
-0.201368	-0.188490	0.009973	-0.202825
-0.183684	-0.176090	0.010412	-0.193532
-0.171782	-0.066664	0.107924	-0.176983
-0.165638	-0.037629	0.125091	-0.160255
-0.193779	-0.100079	0.090794	-0.149937
-0.210383	-0.179404	0.033795	-0.149742
-0.232628	-0.218429	0.011291	-0.159410
-0.214807	-0.194480	0.017431	-0.175144
-0.191347	-0.182048	0.012125	-0.191302
-0.179403	-0.198217	-0.021711	-0.202646
-0.173216	-0.151505	0.018825	-0.206312
-0.184185	-0.139246	0.042064	-0.202741
-0.177976	-0.138456	0.042367	-0.195229
-0.160370	-0.114827	0.048378	-0.188295
-0.171387	-0.108424	0.060074	-0.185586
-0.193777	-0.124889	0.071722	-0.188270
-0.181813	-0.095603	0.083321	-0.194630
-0.164186	-0.015043	0.151975	-0.201009
-0.163761	0.008083	0.168954	-0.203600
-0.151915	-0.037409	0.111627	-0.200232
-0.162958	-0.077004	0.083086	-0.191324
-0.179665	-0.053623	0.123185	-0.179638
-0.179171	-0.041759	0.140277	-0.168996
-0.155836	-0.007101	0.151588	-0.162588
-0.144017	-0.006848	0.140009	-0.161663
-0.149375	0.004825	0.157029	-0.165167
-0.160421	0.005030	0.168266	-0.170427
-0.165710	0.039495	0.208008	-0.174475
-0.176686	-0.006126	0.167641	-0.175324
-0.170485	-0.074401	0.093176	-0.172620
-0.152887	-0.011059	0.138931	-0.167493
-0.135360	-0.010790	0.121684	-0.161822
-0.112193	-0.119018	-0.009699	-0.157371
-0.106251	-0.106885	-0.003497	-0.155191
-0.111754	-0.054829	0.054073	-0.155413
-0.111522	-0.060090	0.054303	-0.157356
-0.082739	-0.042487	0.037400	-0.159778
-0.065494	-0.007825	0.054828	-0.161165
-0.076871	0.003854	0.077895	-0.160034
-0.082490	0.015485	0.095156	-0.155295
-0.082375	-0.018615	0.060952	-0.146588
-0.093681	-0.063996	0.026888	-0.134483
-0.099229	-0.046377	0.050066	-0.120393
-0.099044	-0.017409	0.078860	-0.106198
-0.087437	-0.022822	0.061851	-0.093733
-0.087298	-0.039633	0.044912	-0.084347
-0.064318	-0.010693	0.056594	-0.078677
-0.069983	0.000998	0.073937	-0.076677
-0.087045	-0.010200	0.068367	-0.077775
-0.086905	-0.084167	0.005716	-0.081056
-0.109607	-0.106437	0.000425	-0.085387
-0.132214	-0.077222	0.052258	-0.089518
-0.131887	-0.110939	0.023934	-0.092258
-0.114428	-0.058863	0.052829	-0.092764
-0.137013	-0.029842	0.104446	-0.090892
-0.165214	-0.052332	0.110168	-0.087447
-0.147616	-0.069019	0.075894	-0.084125
-0.147220	-0.114189	0.036049	-0.083056
-0.146824	-0.136332	0.013497	-0.086060
-0.157849	-0.146962	0.013879	-0.093905
-0.145986	-0.117576	0.031390	-0.105921
-0.111330	-0.099730	0.014567	-0.120163
-0.111076	-0.064825	0.043496	-0.134050
-0.116533	-0.030063	0.083725	-0.145218
-0.121967	-0.018285	0.106659	-0.152205
-0.133087	-0.023686	0.112366	-0.154722
-0.132740	-0.017643	0.112339	-0.153452
-0.115263	-0.000205	0.112310	-0.149549
-0.080725	0.017161	0.100860	-0.144131
-0.092011	-0.005516	0.089456	-0.138020
-0.114670	0.034713	0.152332	-0.131784
-0.114394	-0.005168	0.106452	-0.125920
-0.125539	-0.084857	0.037919	-0.120944
-0.148058	-0.169930	-0.024624	-0.117274
-0.176194	-0.168998	0.010165	-0.114991
-0.204212	-0.190911	0.010548	-0.113727
-0.243535	-0.218442	0.022351	-0.112853
-0.299826	-0.274410	0.022685	-0.111936
-0.298781	-0.250203	0.051568	-0.111229
-0.240634	-0.214672	0.028940	-0.111918
-0.171303	-0.213547	-0.039279	-0.115941
-0.147937	-0.206714	-0.061536	-0.125425
-0.101823	-0.125674	-0.026597	-0.141883
-0.050188	-0.033544	0.025329	-0.165398
-0.015895	0.075340	0.088462	-0.194008
0.058231	0.252300	0.191309	-0.223492
0.160603	0.439954	0.276601	-0.247823
0.296817	0.638256	0.338700	-0.260343
0.403919	0.767217	0.366280	-0.255487
0.442055	0.855670	0.416585	-0.230448
0.445770	0.972306	0.529494	-0.186056
0.460885	1.014221	0.550570	-0.126349
0.470225	1.044535	0.577266	-0.056931
0.433841	1.137530	0.700922	0.017134
0.409022	1.270106	0.858328	0.092780
0.378591	1.396418	1.020792	0.168966
0.342571	1.585013	1.245395	0.245285
0.329537	1.647196	1.314889	0.320021
0.316554	1.474987	1.155675	0.388870
0.240808	1.246368	1.002813	0.445206
0.131108	1.052936	0.924802	0.481935
-0.000985	0.826026	0.824262	0.494120
-0.103985	0.685693	0.792650	0.481142
-0.229404	0.580190	0.812554	0.447306
-0.394279	0.480825	0.872341	0.400432
-0.478531	0.421834	0.891903	0.348901
-0.482490	0.357371	0.842854	0.298299
-0.463587	0.258907	0.725474	0.249117
-0.444758	0.172264	0.614279	0.196575
-0.380319	0.080264	0.457851	0.132795
-0.259039	0.062874	0.319191	0.050590
-0.189645	0.091236	0.278172	-0.052537
-0.143376	0.085220	0.225897	-0.171737
-0.108715	0.084937	0.196675	-0.294629
-0.102747	0.118917	0.218963	-0.403838
-0.096803	0.107073	0.201186	-0.481532
-0.102303	0.066725	0.172060	-0.514496
-0.096358	0.055093	0.154471	-0.498099
-0.096148	0.043508	0.136952	-0.437866
-0.101648	-0.002292	0.096663	-0.348169
-0.107124	-0.047905	0.062248	-0.248461
-0.101157	-0.024807	0.079365	-0.158208
-0.129475	-0.024645	0.102122	-0.092078
-0.151965	-0.070167	0.084812	-0.056800
-0.128680	-0.092661	0.039021	-0.050537
-0.122620	-0.097931	0.027678	-0.064787
-0.122294	-0.080338	0.044932	-0.087998
-0.104837	-0.034265	0.073536	-0.109581
-0.093161	0.005909	0.096311	-0.122943
-0.098663	-0.034026	0.067599	-0.126643
-0.098432	-0.085219	0.010453	-0.123499
-0.126752	-0.119071	0.004932	-0.118292
-0.137824	-0.067128	0.067958	-0.115170
-0.131718	-0.061081	0.067910	-0.115843
-0.119926	-0.100740	0.022180	-0.119241
-0.108182	-0.071713	0.033740	-0.122566
-0.107905	-0.071357	0.039541	-0.123078
-0.084787	-0.082422	-0.000365	-0.119683
-0.067473	-0.104862	-0.040108	-0.113548
-0.061650	-0.087237	-0.022585	-0.107476
-0.072982	-0.024002	0.046259	-0.104412
-0.061425	-0.012418	0.052007	-0.105852
-0.038494	-0.029434	0.012048	-0.110955
-0.021367	-0.029250	-0.010617	-0.116779
-0.038572	-0.029066	0.006783	-0.119517
-0.067127	-0.006042	0.058372	-0.116148
-0.049882	-0.005953	0.046937	-0.105736
-0.049837	-0.034417	0.012706	-0.089811
-0.055503	-0.045633	0.012876	-0.071710
-0.066855	-0.045383	0.018756	-0.055268
-0.043899	0.000548	0.041742	-0.043470
-0.015325	-0.022232	-0.003890	-0.037625
-0.026841	-0.062050	-0.032205	-0.037276
-0.055440	-0.073154	-0.014722	-0.040725
-0.066791	-0.061370	0.002689	-0.045803
-0.038122	-0.049635	-0.008523	-0.050553
-0.060964	-0.095050	-0.036820	-0.053614
-0.066580	-0.106018	-0.036450	-0.054325
-0.072172	-0.076967	-0.007530	-0.052693
-0.049189	-0.053746	-0.001570	-0.049319
-0.003459	0.009353	0.015786	-0.045297
0.002112	0.026510	0.027360	-0.041996
-0.009471	-0.002086	0.004624	-0.040699
-0.015296	-0.047697	-0.029440	-0.042139
-0.015387	-0.058858	-0.040523	-0.046099
-0.021187	-0.018581	-0.000168	-0.051248
-0.015543	0.015821	0.028600	-0.055377
0.001499	-0.024153	-0.028404	-0.056069
0.001340	-0.001150	0.000479	-0.051631
-0.015949	-0.001082	0.017823	-0.041915
-0.004616	-0.058119	-0.050559	-0.028617
0.006672	-0.074949	-0.078689	-0.014826
0.006492	-0.028897	-0.032469	-0.003918
0.017734	0.005546	-0.009280	0.001727
0.028929	0.068399	0.036655	0.001624
0.022948	0.136704	0.116663	-0.002704
0.016991	0.176177	0.156369	-0.008409
0.051030	0.044176	-0.003950	-0.012463
0.067799	-0.092995	-0.157902	-0.012744
0.067368	-0.064005	-0.134203	-0.008653
0.066938	-0.000871	-0.064917	-0.001074
0.083640	0.027742	-0.058729	0.008202
0.088852	-0.035128	-0.121090	0.017313
0.105463	-0.017796	-0.126091	0.025065
0.093453	0.050857	-0.039707	0.031313
0.081492	0.079257	0.000641	0.036845
0.092421	0.050435	-0.044831	0.042884
0.114725	0.067414	-0.050145	0.050438
0.142646	0.084322	-0.061147	0.059801
0.147611	0.112581	-0.032132	0.070382
0.135424	0.049357	-0.083180	0.080925
0.146127	0.049205	-0.099757	0.090002
0.128233	0.100446	-0.030611	0.096618
0.150383	0.054400	-0.098796	0.100686
0.178152	0.059935	-0.121019	0.103157
0.194385	0.139681	-0.051785	0.105693
0.221970	0.184837	-0.039937	0.109980
0.249441	0.166992	-0.085242	0.116970
0.213984	0.103536	-0.107519	0.126465
0.201511	0.074600	-0.123994	0.137275
0.206219	0.091465	-0.111850	0.147914
0.193775	0.091128	-0.099754	0.157458
0.181380	0.067951	-0.110549	0.166057
0.174745	0.016315	-0.155562	0.174768
0.208108	0.016284	-0.188968	0.184755
0.224201	0.061935	-0.159423	0.196297
0.223096	0.107398	-0.118577	0.208193
0.221993	0.106991	-0.117870	0.217978
0.249445	0.106584	-0.140006	0.222928
0.248230	0.140440	-0.104948	0.221410
0.218467	0.162734	-0.058613	0.213926
0.177403	0.110702	-0.069570	0.203284
0.176478	0.098854	-0.080483	0.193745
0.169845	0.087053	-0.085639	0.189448
0.168949	0.075299	-0.090775	0.192763
0.190895	0.069302	-0.118730	0.203234
0.195620	0.097591	-0.100888	0.217562
0.177482	0.097212	-0.083118	0.230661
0.187968	0.131095	-0.054000	0.237437
0.192700	0.119155	-0.070684	0.234663
0.185990	0.135813	-0.053038	0.222242
0.167885	0.140982	-0.029753	0.203350
0.155563	0.186100	0.027698	0.183349
0.149001	0.196769	0.044941	0.167868
0.148175	0.144580	-0.000701	0.160789
0.158771	0.166836	0.005237	0.162919
0.186454	0.177579	-0.011692	0.171845
0.179759	0.131173	-0.045682	0.182955
0.167381	0.159189	-0.005299	0.191215
0.160762	0.198510	0.040628	0.192992
0.154168	0.186274	0.034974	0.187294
0.136180	0.139825	0.000791	0.175995
0.129685	0.122116	-0.004702	0.163011
0.088953	0.070217	-0.021592	0.152737
0.076939	0.052791	-0.026993	0.148332
0.087815	0.103959	0.013311	0.150503
0.104356	0.172047	0.064869	0.157243
0.120828	0.217013	0.093374	0.164591
0.114391	0.170428	0.058948	0.168109
0.107978	0.118321	0.007531	0.164498
0.067330	0.123529	0.053400	0.152788
0.055398	0.191529	0.133341	0.134718
0.060646	0.242116	0.184402	0.114208
0.031610	0.115474	0.081074	0.096056
0.025534	-0.027781	-0.056094	0.084303
0.036614	-0.010561	-0.049943	0.080763
0.030517	-0.004832	-0.032396	0.084312
0.013024	0.006583	-0.009210	0.091218
-0.010108	-0.022022	-0.008961	0.096494
-0.016014	-0.027668	-0.008714	0.095744
-0.016186	-0.033291	-0.014178	0.086812
-0.022067	-0.044602	-0.025330	0.070526
-0.039344	-0.038736	0.003535	0.050253
-0.022289	-0.004342	0.015151	0.030455
-0.016724	-0.021482	-0.001833	0.014895
-0.005471	0.001420	0.004094	0.005261
-0.005685	0.012807	0.021416	0.000787
-0.017318	0.029857	0.050088	-0.001067
-0.028904	0.046837	0.078641	-0.003232
-0.057573	0.052325	0.107076	-0.007632
-0.063283	0.012108	0.072580	-0.014366
-0.063259	-0.056497	0.009673	-0.021814
-0.063235	-0.050586	0.015547	-0.027578
-0.068920	-0.033279	0.032817	-0.029793
-0.086002	-0.027464	0.061436	-0.028203
-0.085883	-0.033093	0.049964	-0.024468
-0.080053	-0.027279	0.049960	-0.021565
-0.057115	-0.050040	0.009982	-0.022528
-0.062822	-0.072709	-0.012701	-0.029111
-0.062796	-0.049601	0.016101	-0.041004
-0.057058	-0.032299	0.021943	-0.055917
-0.079895	-0.026488	0.050602	-0.070461
-0.079797	-0.014991	0.062012	-0.081383
-0.062567	0.019299	0.079085	-0.086645
-0.045408	0.019187	0.061824	-0.085954
-0.039739	0.024785	0.061765	-0.080657
-0.039803	0.076042	0.118807	-0.073144
-0.034157	0.001461	0.038568	-0.065996
-0.022823	-0.101366	-0.081316	-0.061176
-0.028666	-0.066724	-0.040820	-0.059463
-0.034485	-0.089328	-0.051883	-0.060283
-0.028860	-0.117548	-0.091452	-0.061991
-0.028967	-0.059998	-0.033783	-0.062535
-0.040495	-0.008394	0.029360	-0.060255
-0.040554	0.014447	0.052271	-0.054541
-0.029192	0.002932	0.029405	-0.046090
-0.006456	-0.082771	-0.073312	-0.036666
0.010477	-0.065336	-0.072823	-0.028461
-0.006921	0.014841	0.024740	-0.023310
-0.024249	0.037585	0.059089	-0.022051
-0.035794	-0.031129	0.001932	-0.024242
-0.041582	-0.122404	-0.083544	-0.028305
-0.041636	-0.156200	-0.117276	-0.032048
-0.030268	-0.121334	-0.088056	-0.033425
-0.030368	-0.086610	-0.058955	-0.031302
-0.019046	-0.046317	-0.029973	-0.025969
-0.019191	-0.029031	-0.006821	-0.019152
-0.025045	-0.011816	0.010526	-0.013433
-0.036586	-0.028934	0.004960	-0.011234
-0.030948	-0.028850	-0.000584	-0.013778
-0.019622	-0.085871	-0.063208	-0.020479
-0.019764	-0.125526	-0.102735	-0.029094
-0.014194	-0.102205	-0.084996	-0.036595
-0.014358	-0.090400	-0.073039	-0.040401
-0.031652	-0.015830	0.018813	-0.039417
-0.054585	0.007042	0.058895	-0.034396
-0.054582	-0.141489	-0.089628	-0.027490
-0.088841	-0.238019	-0.146178	-0.021258
-0.100117	-0.208524	-0.105419	-0.017624
-0.094215	-0.144888	-0.047697	-0.017280
-0.105468	-0.121483	-0.013051	-0.019778
-0.105253	-0.160987	-0.052783	-0.024146
-0.116459	-0.183197	-0.069510	-0.029644
-0.116197	-0.188185	-0.069037	-0.036221
-0.127356	-0.187440	-0.057146	-0.044442
-0.127048	-0.158146	-0.033883	-0.054961
-0.109609	-0.151812	-0.039266	-0.067870
-0.086530	-0.168344	-0.078890	-0.082312
-0.074966	-0.161967	-0.089799	-0.096597
-0.086289	-0.184166	-0.100664	-0.108751
-0.114697	-0.217694	-0.105773	-0.117232
-0.137276	-0.245372	-0.110860	-0.121408
-0.136921	-0.204412	-0.070244	-0.121613
-0.125146	-0.203591	-0.075477	-0.118815
-0.141969	-0.231323	-0.092108	-0.114175
-0.175853	-0.276071	-0.102961	-0.108791
-0.181045	-0.297792	-0.119479	-0.103714
-0.191925	-0.279451	-0.084536	-0.100087
-0.197048	-0.249761	-0.049736	-0.099155
-0.202149	-0.260164	-0.060761	-0.102032
-0.201516	-0.247681	-0.048899	-0.109302
-0.166623	-0.195276	-0.025666	-0.120710
-0.149002	-0.177345	-0.031079	-0.135129
-0.125742	-0.125226	-0.002208	-0.150850
-0.119707	-0.119001	-0.002008	-0.166016
-0.113695	-0.169905	-0.058912	-0.179013
-0.096287	-0.203468	-0.104162	-0.188637
-0.090369	-0.185499	-0.097833	-0.194035
-0.078765	-0.139051	-0.057268	-0.194582
-0.112890	-0.167027	-0.056841	-0.189852
-0.124034	-0.194887	-0.073547	-0.179783
-0.100868	-0.205501	-0.101605	-0.164963
-0.077797	-0.210359	-0.129548	-0.146827
-0.094791	-0.238038	-0.145954	-0.127605
-0.117426	-0.231340	-0.116611	-0.109956
-0.139966	-0.213247	-0.070255	-0.096368
-0.128152	-0.200937	-0.069773	-0.088501
-0.127805	-0.222938	-0.097843	-0.086708
-0.121748	-0.216295	-0.097246	-0.089926
-0.098584	-0.198258	-0.096652	-0.096071
-0.081224	-0.186004	-0.101770	-0.102808
-0.086776	-0.185219	-0.095445	-0.108391
-0.103725	-0.190147	-0.083436	-0.112157
-0.080632	-0.177922	-0.100028	-0.114455
-0.034791	-0.120064	-0.082289	-0.116052
-0.057661	-0.096704	-0.041781	-0.117394
-0.086148	-0.141962	-0.058542	-0.118151
-0.091675	-0.175614	-0.080945	-0.117301
-0.091469	-0.174866	-0.086125	-0.113682
-0.057001	-0.156988	-0.102704	-0.106680
-0.051226	-0.156313	-0.102083	-0.096694
-0.045473	-0.144220	-0.095755	-0.085188
-0.051165	-0.092203	-0.038059	-0.074308
-0.073963	-0.028978	0.042242	-0.066221
-0.096667	-0.057377	0.036559	-0.062359
-0.090726	-0.079949	0.008056	-0.062849
-0.073388	-0.028194	0.048194	-0.066381
-0.084672	0.000507	0.082456	-0.070657
-0.090198	-0.028013	0.059474	-0.073330
-0.067150	-0.005023	0.059427	-0.073043
-0.067036	-0.033521	0.036537	-0.070070
-0.038371	-0.096163	-0.060494	-0.066201
-0.021243	-0.101446	-0.077183	-0.063874
-0.032737	-0.100996	-0.065251	-0.064958
-0.055604	-0.066285	-0.013396	-0.069767
-0.055536	-0.020296	0.032536	-0.076761
-0.055467	-0.008758	0.049727	-0.083062
-0.055398	0.008444	0.066848	-0.085564
-0.032488	0.036995	0.066766	-0.082196
-0.049643	0.019746	0.066683	-0.072822
-0.066728	0.002568	0.072311	-0.059450
-0.060901	-0.025961	0.032232	-0.045597
-0.037966	-0.008691	0.026578	-0.035057
-0.032255	-0.014334	0.020947	-0.030515
-0.043699	-0.042794	0.003917	-0.032595
-0.043675	-0.048297	-0.001622	-0.039721
-0.043650	-0.070908	-0.024270	-0.048834
-0.055046	-0.082006	-0.029695	-0.056598
-0.072104	-0.104478	-0.029387	-0.060574
-0.106223	-0.121148	-0.011950	-0.059924
-0.105940	-0.057804	0.051098	-0.055455
-0.088526	-0.068953	0.016812	-0.049130
-0.088313	-0.148581	-0.063017	-0.043324
-0.088100	-0.159357	-0.068285	-0.040130
-0.076467	-0.141537	-0.067820	-0.040910
-0.093432	-0.158051	-0.067358	-0.046110
-0.144589	-0.174496	-0.026925	-0.055247
-0.144142	-0.196583	-0.049471	-0.067018
-0.143696	-0.190026	-0.049083	-0.079513
-0.143250	-0.206337	-0.060118	-0.090604
-0.154225	-0.233999	-0.076818	-0.098536
-0.136602	-0.204444	-0.064897	-0.102574
-0.113340	-0.186429	-0.075867	-0.103421
-0.095883	-0.191328	-0.092501	-0.103113
-0.107048	-0.167654	-0.057674	-0.104293
-0.118166	-0.155496	-0.040121	-0.109088
-0.112106	-0.171939	-0.062612	-0.118052
-0.111781	-0.188313	-0.079300	-0.129690
-0.100035	-0.198909	-0.101630	-0.140845
-0.099758	-0.186618	-0.089607	-0.147848
-0.093769	-0.145825	-0.054791	-0.148011
-0.082095	-0.133750	-0.048668	-0.140792
-0.076177	-0.178826	-0.105385	-0.128123
-0.064573	-0.126642	-0.059083	-0.113702
-0.053016	-0.074670	-0.024391	-0.101557
-0.041506	-0.102855	-0.058365	-0.094479
-0.092855	-0.119504	-0.023677	-0.093020
-0.104022	-0.130374	-0.029102	-0.095424
-0.080879	-0.118356	-0.040216	-0.098488
-0.074962	-0.112098	-0.034154	-0.098944
-0.091909	-0.071603	0.017566	-0.094801
-0.125917	-0.071245	0.057653	-0.086147
-0.102682	-0.105151	0.000500	-0.075130
-0.068120	-0.167469	-0.102102	-0.065136
-0.067961	-0.200978	-0.130050	-0.059488
-0.050671	-0.194377	-0.146461	-0.060178
-0.044871	-0.187802	-0.145674	-0.067132
-0.039095	-0.135569	-0.099206	-0.078268
0.000919	-0.037868	-0.041508	-0.090231
0.006508	0.065144	0.061636	-0.099470
0.029205	0.156313	0.124385	-0.103248
0.080361	0.218555	0.141193	-0.100280
0.119886	0.360484	0.237875	-0.090858
0.170668	0.490408	0.317027	-0.076503
0.215531	0.596954	0.378722	-0.059283
0.260209	0.697348	0.434449	-0.041024
0.270439	0.780193	0.507075	-0.022655
0.274915	0.862693	0.585110	-0.003882
0.290791	0.944846	0.651398	0.016713
0.289469	1.026656	0.740251	0.041134
0.253888	1.188065	0.931519	0.071143
0.201320	1.234596	1.036340	0.107379
0.166097	1.218113	1.049357	0.148707
0.159568	1.156004	0.999499	0.192082
0.135933	1.031326	0.898443	0.233001
0.055291	0.861467	0.803503	0.266446
-0.025021	0.715138	0.737496	0.288015
-0.133555	0.552271	0.688884	0.294899
-0.281615	0.435748	0.720410	0.286448
-0.400515	0.405353	0.803192	0.264147
-0.490373	0.386499	0.874208	0.230978
-0.522756	0.350588	0.870690	0.190242
-0.480767	0.280559	0.764394	0.144190
-0.438947	0.187973	0.624264	0.092952
-0.385873	0.095763	0.484702	0.034356
-0.315882	0.038193	0.351418	-0.034985
-0.280437	-0.007723	0.270069	-0.117470
-0.239424	-0.002057	0.234732	-0.211916
-0.215708	-0.013546	0.199538	-0.311770
-0.180667	0.020694	0.204458	-0.405216
-0.128637	0.071924	0.197936	-0.477650
-0.093949	0.094391	0.191437	-0.515913
-0.053693	0.076794	0.127860	-0.512799
-0.030732	0.053556	0.087383	-0.469987
-0.019285	0.041834	0.058491	-0.398057
-0.019305	0.001608	0.024005	-0.313389
-0.036456	0.007228	0.041054	-0.233044
-0.042115	0.012824	0.058031	-0.169613
-0.053461	-0.010154	0.046386	-0.127986
-0.030498	0.012644	0.046209	-0.105202
0.003791	-0.004624	-0.011072	-0.093187
0.037941	-0.027533	-0.068119	-0.083029
0.054819	-0.027506	-0.084959	-0.068886
0.054497	-0.033190	-0.090310	-0.049937
0.077018	-0.004589	-0.084219	-0.029741
0.088024	0.035315	-0.055311	-0.013586
0.104696	0.052213	-0.049362	-0.005233
0.144140	0.069042	-0.071990	-0.004684
0.126318	0.062959	-0.060264	-0.007960
0.119988	0.056900	-0.065716	-0.008887
0.130815	0.067996	-0.065436	-0.001904
0.135886	0.101887	-0.036605	0.015487
0.180907	0.169899	-0.013603	0.041742
0.208612	0.140556	-0.070640	0.072052
0.207650	0.099910	-0.110312	0.100389
0.229531	0.105112	-0.126981	0.121824
0.251321	0.144554	-0.109319	0.134200
0.255889	0.160991	-0.097439	0.138642
0.294698	0.194489	-0.097028	0.138870
0.333346	0.239269	-0.096619	0.139718
0.371832	0.261022	-0.107631	0.145428
0.398738	0.294104	-0.101467	0.158324
0.408398	0.349888	-0.061067	0.178290
0.452278	0.416861	-0.037963	0.203186
0.478844	0.420743	-0.054926	0.229971
0.511007	0.418894	-0.094661	0.256059
0.531613	0.479862	-0.048578	0.280306
0.529290	0.483473	-0.048367	0.303263
0.544102	0.481354	-0.065287	0.326618
0.553139	0.473529	-0.082139	0.352198
0.545004	0.454310	-0.093210	0.380980
0.536897	0.463718	-0.069975	0.412557
0.563081	0.507345	-0.058255	0.445196
0.623415	0.550788	-0.075135	0.476393
0.649234	0.571207	-0.080525	0.503636
0.640681	0.557274	-0.085893	0.525102
0.643578	0.526263	-0.119791	0.540103
0.623616	0.518215	-0.107866	0.549257
0.603731	0.515906	-0.090280	0.554399
0.618184	0.507890	-0.112738	0.558237
0.598311	0.482772	-0.112262	0.563732
0.544252	0.486303	-0.054685	0.573219
0.518962	0.449844	-0.071577	0.587494
0.522322	0.413529	-0.105532	0.605239
0.474272	0.377359	-0.099375	0.623143
0.420704	0.318491	-0.104663	0.636796
0.367352	0.242731	-0.121350	0.642074
0.262822	0.150148	-0.115127	0.636469
0.153008	0.040811	-0.114639	0.619816
0.037932	-0.050948	-0.085602	0.594138
-0.088093	-0.148042	-0.062393	0.562643
-0.167919	-0.250448	-0.079252	0.528249
-0.264547	-0.363853	-0.101752	0.492172
-0.337937	-0.459660	-0.124160	0.453128
-0.382471	-0.537941	-0.152186	0.407481
-0.449661	-0.621608	-0.168675	0.350402
-0.499441	-0.670665	-0.173675	0.277698
-0.537592	-0.696675	-0.161524	0.187712
-0.575582	-0.733993	-0.160841	0.082575
-0.590571	-0.725471	-0.137320	-0.031707
-0.588362	-0.734109	-0.148156	-0.146495
-0.569027	-0.748417	-0.181788	-0.252703
-0.584028	-0.751239	-0.163889	-0.343182
-0.564700	-0.725493	-0.157483	-0.414438
-0.511186	-0.699846	-0.185364	-0.467055
-0.457886	-0.662879	-0.207420	-0.504715
-0.427641	-0.614637	-0.189412	-0.532279
-0.391807	-0.555168	-0.165766	-0.553733
-0.367537	-0.541620	-0.170768	-0.570808
-0.343363	-0.550966	-0.210011	-0.582704
-0.307864	-0.560269	-0.249091	-0.586869
-0.255378	-0.483874	-0.230907	-0.580421
-0.220235	-0.447762	-0.224216	-0.561610
-0.196655	-0.446056	-0.246103	-0.530811
-0.156038	-0.444353	-0.285030	-0.490715
-0.098456	-0.408393	-0.306665	-0.445673
-0.075371	-0.389708	-0.311078	-0.400440
-0.069510	-0.371096	-0.298340	-0.358765
-0.040832	-0.329717	-0.291362	-0.322370
-0.052243	-0.311346	-0.255859	-0.290683
-0.052186	-0.275918	-0.220501	-0.261401
-0.034997	-0.252053	-0.213837	-0.231655
-0.023590	-0.228285	-0.201489	-0.199325
0.004903	-0.204612	-0.212032	-0.164017
0.027568	-0.221007	-0.245371	-0.127371
0.055851	-0.163100	-0.215759	-0.092571
0.084017	-0.162532	-0.243370	-0.063227
0.077806	-0.213358	-0.293708	-0.042016
0.071619	-0.212582	-0.281024	-0.029573
0.082588	-0.131863	-0.216997	-0.024060
0.099222	-0.062895	-0.164652	-0.021619
0.115787	-0.062733	-0.181045	-0.017604
0.115152	-0.039730	-0.157396	-0.008179
0.114519	-0.045374	-0.156686	0.008315
0.108177	-0.062415	-0.173108	0.030757
0.130412	-0.090806	-0.223724	0.055706
0.135424	-0.084819	-0.222738	0.078740
0.146125	-0.021754	-0.170362	0.096138
0.156780	0.001081	-0.152462	0.106191
0.138839	0.023822	-0.117503	0.109640
0.155233	0.103573	-0.054135	0.109133
0.148716	0.131602	-0.019579	0.108041
0.142226	0.113833	-0.025136	0.109183
0.158601	0.079004	-0.082064	0.113946
0.157778	0.072868	-0.087366	0.122062
0.168377	0.038205	-0.126907	0.131977
0.190352	0.112179	-0.074921	0.141601
0.212236	0.174428	-0.034569	0.149100
0.222607	0.139344	-0.080036	0.153491
0.227224	0.064431	-0.165290	0.154895
0.226110	0.041216	-0.181669	0.154436
0.242129	0.120881	-0.123747	0.153882
0.252371	0.131695	-0.123164	0.155139
0.251148	0.079649	-0.168265	0.159742
0.267058	0.096339	-0.167499	0.168443
0.311453	0.164353	-0.143893	0.180986
0.304271	0.220665	-0.086121	0.196146
0.302826	0.219641	-0.079979	0.212074
0.324225	0.235750	-0.085282	0.226855
0.351244	0.251790	-0.096273	0.239135
0.332467	0.216370	-0.112930	0.248587
0.279503	0.186802	-0.089545	0.256005
0.249594	0.214457	-0.031995	0.262970
0.151282	0.196314	0.042451	0.271175
0.013399	0.046905	0.042357	0.281667
-0.083947	-0.079051	0.008001	0.294246
-0.135211	-0.090284	0.042309	0.307167
-0.186264	-0.101472	0.087895	0.317186
-0.185713	-0.141164	0.041929	0.319882
-0.190873	-0.197825	-0.003849	0.310264
-0.213142	-0.185728	0.030504	0.283671
-0.218187	-0.133707	0.087556	0.237008
-0.194657	-0.178975	0.013037	0.170115
-0.159802	-0.212635	-0.055468	0.086828
-0.119378	-0.206184	-0.089430	-0.004860
-0.084828	-0.228309	-0.146094	-0.094002
-0.061840	-0.210370	-0.151132	-0.169126
-0.038946	-0.203924	-0.167569	-0.221199
-0.004725	-0.231766	-0.229621	-0.245981
0.040777	-0.282332	-0.325679	-0.244862
0.097513	-0.366952	-0.461313	-0.223867
0.159726	-0.451222	-0.613520	-0.191306
0.141739	-0.443779	-0.588078	-0.155049
0.095272	-0.419232	-0.517054	-0.120439
0.060416	-0.389073	-0.446316	-0.089422
0.019991	-0.347613	-0.364445	-0.060985
-0.025978	-0.169273	-0.145858	-0.032535
-0.077470	0.014048	0.094675	-0.001687
-0.083067	0.013887	0.100098	0.032095
-0.077220	-0.060508	0.014133	0.066534
-0.088527	-0.140309	-0.048639	0.096613
-0.105497	-0.156968	-0.054050	0.115806
-0.122397	-0.145006	-0.019468	0.118174
-0.099254	-0.036018	0.060655	0.100642
-0.076206	0.146758	0.226104	0.064591
-0.070382	0.254550	0.316638	0.016043
-0.058871	0.339056	0.395378	-0.035781
-0.064537	0.537419	0.599419	-0.081100
-0.081601	0.689282	0.774066	-0.112424
-0.052911	0.412243	0.468325	-0.126539
-0.058601	0.079232	0.140991	-0.124911
-0.069976	0.192989	0.260400	-0.112522
-0.047043	0.140678	0.185167	-0.095748
-0.024203	0.037187	0.058847	-0.080197
-0.012878	-0.254321	-0.243976	-0.069274
-0.007308	-0.396165	-0.391379	-0.063787
0.009659	-0.240489	-0.246949	-0.062479
-0.001995	-0.096870	-0.097398	-0.063035
-0.025022	-0.165120	-0.142611	-0.063092
-0.065085	-0.073201	-0.004908	-0.060910
-0.104984	0.115417	0.223596	-0.055641
-0.116167	0.229027	0.342666	-0.047313
-0.093041	0.068074	0.158598	-0.036738
-0.064298	0.056247	0.123750	-0.025449
-0.064225	0.158674	0.220380	-0.015631
-0.007047	0.272101	0.276641	-0.009906
0.112709	0.293695	0.184200	-0.010769
0.169160	0.081075	-0.084885	-0.019701
0.128304	-0.170648	-0.301474	-0.036186
0.047641	-0.467021	-0.517174	-0.057088
0.052964	-0.328192	-0.377946	-0.076796
0.109657	-0.007200	-0.113660	-0.088325
0.091882	-0.070114	-0.164523	-0.085226
0.079891	-0.069957	-0.152363	-0.063839
0.079368	0.152902	0.071029	-0.025134
0.084557	-0.013455	-0.094796	0.024705
0.026910	-0.253366	-0.277072	0.075550
-0.030500	-0.423768	-0.390076	0.116299
-0.070544	-0.382187	-0.308464	0.138542
-0.110424	-0.203726	-0.090136	0.139414
-0.138718	-0.083098	0.058773	0.122335
-0.166896	-0.060039	0.109997	0.095235
-0.183536	-0.162702	0.023962	0.067032
-0.182975	-0.407701	-0.227321	0.043917
-0.233808	-0.463253	-0.232029	0.027100
-0.244458	-0.444340	-0.202455	0.012954
-0.215091	-0.539708	-0.321469	-0.004640
-0.214393	-0.651811	-0.439993	-0.030946
-0.259379	-0.666375	-0.409560	-0.067609
-0.304179	-0.520986	-0.213649	-0.111695
-0.331662	-0.444711	-0.115616	-0.156822
-0.370449	-0.534345	-0.166451	-0.195729
-0.369103	-0.703553	-0.331283	-0.223081
-0.390600	-0.780696	-0.386942	-0.237377
-0.372034	-0.669077	-0.293902	-0.241338
-0.330699	-0.535068	-0.201241	-0.240800
-0.283820	-0.470129	-0.183193	-0.242618
-0.225710	-0.502527	-0.273713	-0.252330
-0.219229	-0.506236	-0.283916	-0.272304
-0.149960	-0.452824	-0.305496	-0.300917
-0.103814	-0.451020	-0.349827	-0.332926
-0.149221	-0.477771	-0.331160	-0.360905
-0.177310	-0.470147	-0.295436	-0.377296
-0.153889	-0.445420	-0.288408	-0.376502
-0.119142	-0.432211	-0.309959	-0.356447
-0.107378	-0.436184	-0.325709	-0.319202
-0.129923	-0.405876	-0.272868	-0.270557
-0.203767	-0.352847	-0.151718	-0.218651
-0.214494	-0.334295	-0.116718	-0.172006
-0.196623	-0.332947	-0.133253	-0.137433
-0.133141	-0.377285	-0.241085	-0.118388
-0.052787	-0.318653	-0.262820	-0.114377
-0.012734	-0.237417	-0.221649	-0.121624
-0.035658	-0.322112	-0.283432	-0.134755
-0.069908	-0.383615	-0.316408	-0.148653
-0.024073	-0.490547	-0.463453	-0.159646
-0.064081	-0.482830	-0.421452	-0.165590
-0.098213	-0.383776	-0.282544	-0.165206
-0.040840	-0.290836	-0.252699	-0.157451
-0.000832	-0.318190	-0.314340	-0.141605
-0.000960	-0.334009	-0.335754	-0.118096
-0.023929	-0.281238	-0.254292	-0.089400
-0.035382	-0.308624	-0.270237	-0.060171
-0.018237	-0.353028	-0.331798	-0.036116
0.050231	-0.260199	-0.307449	-0.021937
0.061315	-0.190589	-0.254646	-0.019293
0.066643	-0.338255	-0.401919	-0.025902
0.037687	-0.388239	-0.422959	-0.036338
-0.031124	-0.300967	-0.266889	-0.044161
-0.048259	-0.305416	-0.259925	-0.044365
-0.031061	-0.326975	-0.298670	-0.035032
-0.019644	-0.291340	-0.268731	-0.017663
0.014568	-0.267269	-0.278884	0.003690
0.071481	-0.174771	-0.243311	0.023860
0.122450	-0.094071	-0.213593	0.038023
0.224602	-0.162170	-0.389566	0.042881
0.332044	-0.172885	-0.507712	0.037504
0.421913	-0.069349	-0.488323	0.023824
0.471438	0.113707	-0.354803	0.006631
0.492204	0.290302	-0.198987	-0.007075
0.512881	0.317704	-0.197985	-0.009398
0.607704	0.327859	-0.276931	0.006675
0.673581	0.435044	-0.241345	0.045481
0.710631	0.421870	-0.291558	0.107334
0.736103	0.431588	-0.301591	0.188072
0.824278	0.566889	-0.260187	0.279758
0.923506	0.570293	-0.355999	0.372511
0.965216	0.590809	-0.371471	0.457072
1.006747	0.599816	-0.409719	0.527325
0.996707	0.665883	-0.327890	0.581891
0.912466	0.748805	-0.160739	0.624203
0.765748	0.682912	-0.085636	0.661025
0.539681	0.440263	-0.102206	0.699900
0.308824	0.312811	0.006920	0.746332
0.050360	0.083092	0.035653	0.801489
-0.212757	-0.299865	-0.084199	0.860957
-0.463374	-0.686962	-0.220691	0.914827
-0.758643	-1.015365	-0.253837	0.949090
-1.012723	-1.330993	-0.315397	0.948145
-1.191521	-1.508270	-0.313889	0.897984
-1.341024	-1.707650	-0.369488	0.789399
-1.444221	-1.826254	-0.384884	0.620423
-1.489880	-1.807310	-0.314559	0.397256
-1.466816	-1.719905	-0.255940	0.133337
-1.466675	-1.558610	-0.089064	-0.153154
-1.449391	-1.432224	0.020026	-0.442566
-1.466427	-1.391999	0.071565	-0.716808
-1.460541	-1.334796	0.128603	-0.961385
-1.420404	-1.226424	0.191117	-1.166224
-1.386129	-1.129905	0.253372	-1.325595
-1.374825	-1.170821	0.206874	-1.437723
-1.306452	-1.160166	0.149143	-1.504512
-1.255479	-1.132414	0.120200	-1.531402
-1.267517	-1.218973	0.045691	-1.526978
-1.222392	-1.345139	-0.119879	-1.501906
-1.143179	-1.333730	-0.187694	-1.467099
-1.098543	-1.168178	-0.072500	-1.431521
-1.071212	-1.100369	-0.026301	-1.400415
-1.066824	-1.129904	-0.060236	-1.374684
-1.142390	-1.199282	-0.059770	-1.351681
-1.092009	-1.102765	-0.013623	-1.327058
-1.041825	-0.966663	0.072307	-1.296929
-0.929024	-0.785427	0.146464	-1.259565
-0.833808	-0.633479	0.197474	-1.216153
-0.796078	-0.544961	0.248273	-1.170497
-0.764205	-0.491063	0.276021	-1.127764
-0.669644	-0.351727	0.315072	-1.092579
-0.621145	-0.264351	0.353961	-1.067000
-0.652785	-0.240145	0.409819	-1.049117
-0.621475	-0.176063	0.442602	-1.033043
-0.624551	-0.186477	0.440986	-1.010604
-0.536242	-0.019826	0.513606	-0.974304
-0.482553	0.271769	0.751523	-0.920438
-0.548996	0.476512	1.022720	-0.851015
-0.546638	0.714675	1.258537	-0.773598
-0.572836	0.700603	1.276384	-0.698949
-0.673155	0.492432	1.168520	-0.637361
-0.761637	0.382184	1.146743	-0.595127
-0.798357	0.283806	1.085072	-0.572672
-0.874892	0.140146	1.017934	-0.565177
-0.859740	0.071307	0.928222	-0.565430
-0.856063	0.065563	0.918812	-0.567587
-0.903787	0.088394	0.989378	-0.570107
-1.008410	-0.083020	0.928309	-0.576453
-1.072623	-0.156656	0.913164	-0.593206
-0.988096	-0.110073	0.875232	-0.626433
-0.892486	-0.097941	0.797475	-0.678071
-0.860073	-0.194354	0.668636	-0.744113
-0.770681	-0.273239	0.494637	-0.815529
-0.641677	-0.346089	0.292795	-0.881443
-0.507485	-0.327272	0.177431	-0.932885
-0.396678	-0.194323	0.199585	-0.965220
-0.394818	-0.130441	0.267328	-0.978184
-0.478617	-0.266681	0.209165	-0.973860
-0.562068	-0.276733	0.288285	-0.954003
-0.628040	-0.281031	0.349947	-0.918339
-0.556689	-0.193944	0.359961	-0.864906
-0.451363	-0.078661	0.375640	-0.792361
-0.409278	-0.009532	0.402672	-0.703151
-0.441595	-0.129126	0.309672	-0.605745
-0.359569	-0.293911	0.068583	-0.514279
-0.329269	-0.395206	-0.063024	-0.444965
-0.293379	-0.416138	-0.125569	-0.410290
-0.354708	-0.425560	-0.073650	-0.413443
-0.410072	-0.503463	-0.090468	-0.445777
-0.419523	-0.512519	-0.095795	-0.488956
-0.434641	-0.521534	-0.089681	-0.521282
-0.426852	-0.393460	0.030616	-0.525721
-0.430511	-0.288748	0.144708	-0.496297
-0.474123	-0.367193	0.109864	-0.440229
-0.437608	-0.416761	0.018057	-0.374986
-0.401237	-0.351917	0.052253	-0.321510
-0.450667	-0.355859	0.092018	-0.296373
-0.477048	-0.388333	0.085937	-0.305945
-0.434793	-0.266493	0.171244	-0.344714
-0.375576	-0.190831	0.187676	-0.398115
-0.379411	-0.109768	0.266852	-0.448455
-0.360385	-0.171793	0.185812	-0.481394
-0.341433	-0.153619	0.190757	-0.490483
-0.339687	-0.009890	0.327016	-0.478219
-0.349365	-0.009508	0.337088	-0.453580
-0.381840	-0.157595	0.221487	-0.427425
-0.362786	-0.230841	0.134910	-0.407903
-0.355227	-0.349466	0.008713	-0.397759
-0.302013	-0.456182	-0.151229	-0.394417
-0.220462	-0.374017	-0.150627	-0.392420
-0.196346	-0.332157	-0.132896	-0.386766
-0.200877	-0.279045	-0.080974	-0.375474
-0.233940	-0.266120	-0.029265	-0.360185
-0.255443	-0.264666	-0.006320	-0.344700
-0.259725	-0.206113	0.056503	-0.332375
-0.189752	-0.136377	0.056254	-0.323893
-0.160036	-0.009822	0.153081	-0.316694
-0.244646	0.064822	0.312322	-0.306420
-0.243251	0.036374	0.276757	-0.289565
-0.184757	-0.043351	0.138550	-0.265819
-0.143630	-0.356871	-0.216085	-0.238722
-0.148353	-0.594870	-0.449349	-0.214252
-0.221579	-0.689131	-0.470373	-0.198110
-0.191716	-0.594559	-0.399943	-0.193121
-0.150552	-0.443267	-0.295536	-0.197999
-0.126686	-0.366824	-0.242948	-0.207932
-0.097206	-0.290691	-0.196284	-0.216627
-0.067845	-0.089241	-0.018473	-0.218856
-0.067154	-0.059924	0.004431	-0.212399
-0.214934	-0.173484	0.038661	-0.198574
-0.236478	-0.086717	0.152695	-0.181191
-0.166567	-0.023145	0.146343	-0.164516
-0.199725	-0.216797	-0.014163	-0.151322
-0.175642	-0.318290	-0.145461	-0.142058
-0.071711	-0.213792	-0.144882	-0.135514
-0.053859	-0.149692	-0.098623	-0.130446
-0.093182	-0.297135	-0.206732	-0.127008
-0.120922	-0.284083	-0.160218	-0.126938
-0.137126	-0.099772	0.034574	-0.132268
-0.124710	-0.093235	0.028707	-0.143318
-0.078081	-0.035331	0.045704	-0.157325
-0.043063	0.028047	0.068341	-0.168789
0.003234	0.171110	0.170829	-0.171654
-0.007761	0.279323	0.284315	-0.162281
-0.018711	0.158679	0.174632	-0.141551
0.004647	0.072790	0.071106	-0.114820
0.033621	-0.007038	-0.043418	-0.089573
0.045345	-0.069408	-0.111790	-0.071950
-0.005791	-0.057287	-0.048545	-0.063939
-0.011035	-0.290758	-0.282495	-0.062675
-0.033388	-0.506140	-0.475512	-0.062110
-0.078489	-0.417988	-0.336538	-0.056124
-0.060591	-0.227408	-0.169578	-0.041504
-0.054185	-0.231757	-0.180322	-0.019450
-0.013543	0.020878	0.025972	0.004901
0.026934	0.186824	0.162896	0.024559
0.004433	0.249302	0.247864	0.033385
-0.069369	0.060269	0.126910	0.028383
-0.034371	-0.076596	-0.044942	0.010798
-0.010936	-0.121536	-0.113305	-0.014229
0.006693	-0.109187	-0.118574	-0.039297
0.087065	-0.114018	-0.203766	-0.057145
0.110004	-0.204483	-0.311449	-0.063042
0.104297	-0.186080	-0.287351	-0.056311
0.115745	-0.133488	-0.251929	-0.040327
0.132855	-0.109662	-0.245203	-0.020881
0.132765	-0.045960	-0.175689	-0.003544
0.149805	0.080295	-0.066486	0.008785
0.183906	0.148930	-0.037675	0.016983
0.229287	0.222992	-0.014693	0.024928
0.268771	0.256777	-0.014647	0.037269
0.348064	0.318974	-0.031732	0.056903
0.398478	0.352362	-0.048747	0.083449
0.368738	0.265693	-0.105665	0.113472
0.304857	0.145116	-0.168060	0.142311
0.286917	0.122107	-0.167384	0.166546
0.297601	0.247660	-0.052505	0.185844
0.308239	0.018657	-0.286425	0.203186
0.324543	-0.118043	-0.439440	0.223255
0.329357	-0.025769	-0.357703	0.249679
0.334149	-0.105182	-0.441897	0.282527
0.293236	-0.104325	-0.400116	0.317422
0.241070	0.039289	-0.198615	0.346926
0.280480	0.130921	-0.146406	0.363687
0.314017	0.210756	-0.105831	0.363839
0.284601	0.347366	0.060206	0.348941
0.249594	0.449151	0.202720	0.325460
0.226150	0.550516	0.321807	0.302039
0.202800	0.531545	0.326196	0.285934
0.150993	0.381310	0.233489	0.280305
0.139370	0.071799	-0.064412	0.283512
0.139215	-0.127949	-0.269728	0.290431
0.081957	-0.258354	-0.342864	0.294914
0.036355	-0.433904	-0.467090	0.292155
0.076594	-0.397450	-0.476598	0.280045
0.065275	-0.235515	-0.297623	0.259254
0.054003	-0.171317	-0.222165	0.232330
0.019936	-0.153062	-0.175566	0.202444
-0.013991	-0.191983	-0.180550	0.172333
0.015036	-0.139379	-0.156961	0.143804
0.026813	0.021508	-0.007840	0.117788
0.027122	0.084660	0.060724	0.094705
-0.029673	0.061899	0.089035	0.074797
-0.046263	-0.023584	0.020153	0.058218
-0.005680	0.011201	0.014366	0.044925
0.006186	0.011582	0.002892	0.034556
0.012293	-0.022300	-0.037087	0.026437
-0.010175	-0.004651	0.008752	0.019728
-0.049682	0.058609	0.105796	0.013626
-0.054764	0.081638	0.139627	0.007564
-0.065534	0.093151	0.156187	0.001370
-0.070548	0.138878	0.206939	-0.004666
-0.075541	0.064500	0.143275	-0.009935
-0.069091	0.081792	0.148394	-0.013872
-0.096928	0.104722	0.204883	-0.016440
