0.340658	0.526186	0.183322	0.340658
0.275582	0.357405	0.085336	0.275582
0.136535	0.183602	0.044855	0.136535
0.015187	0.004797	-0.006881	0.015187
-0.117087	-0.161855	-0.046985	-0.117087
-0.243108	-0.304983	-0.064082	-0.243108
-0.374322	-0.418972	-0.041137	-0.374322
-0.465025	-0.446836	0.021687	-0.465025
-0.475408	-0.440321	0.032861	-0.475408
-0.405802	-0.473803	-0.064506	-0.405802
-0.342189	-0.581378	-0.235709	-0.342189
-0.290256	-0.734191	-0.446180	-0.290256
-0.232823	-0.863532	-0.627233	-0.232823
-0.164205	-0.900971	-0.739016	-0.164205
-0.101577	-0.858306	-0.753259	-0.101577
-0.067758	-0.781547	-0.710333	-0.067758
-0.039788	-0.790752	-0.747522	-0.039788
-0.006223	-0.782783	-0.773132	-0.006223
0.027204	-0.734868	-0.764367	0.027204
0.049071	-0.732826	-0.784184	0.049071
0.065137	-0.844994	-0.906698	0.065137
0.075426	-0.882462	-0.960179	0.075426
0.068540	-0.902639	-0.967750	0.068540
0.044549	-0.917016	-0.963861	0.044549
0.043496	-0.902776	-0.942848	0.043496
0.059577	-0.871457	-0.927624	0.059577
0.064170	-0.834548	-0.895322	0.064170
0.063033	-0.832047	-0.897408	0.063033
0.061898	-0.846681	-0.905187	0.061898
0.066477	-0.844117	-0.912926	0.066477
0.093876	-0.835847	-0.926336	0.093876
0.109741	-0.901839	-1.013917	0.109741
0.096988	-0.950422	-1.044027	0.096988
0.089995	-0.913145	-0.999770	0.089995
0.088739	-0.881724	-0.967107	0.088739
0.081776	-0.850425	-0.934569	0.081776
0.074839	-0.824957	-0.902156	0.074839
0.073640	-0.856691	-0.932681	0.073640
0.078154	-0.882578	-0.957362	0.078154
0.094069	-0.862670	-0.959093	0.094069
0.098496	-0.831416	-0.926546	0.098496
0.085772	-0.885939	-0.968358	0.085772
0.090229	-0.900259	-0.992860	0.090229
0.094666	-0.868831	-0.965859	0.094666
0.087663	-0.843235	-0.933250	0.087663
0.080686	-0.874841	-0.957870	0.080686
0.062315	-0.883470	-0.942408	0.062315
0.072570	-0.857794	-0.932711	0.072570
0.094201	-0.860768	-0.957307	0.094201
0.087191	-0.846593	-0.936112	0.087191
0.080207	-0.855310	-0.932125	0.080207
0.101801	-0.841144	-0.939568	0.101801
0.089044	-0.884133	-0.975523	0.089044
0.093467	-0.886966	-0.982770	0.093467
0.097871	-0.901201	-0.995689	0.097871
0.107965	-0.846848	-0.951443	0.107965
0.129436	-0.769869	-0.901660	0.129436
0.127976	-0.744592	-0.869203	0.127976
0.109388	-0.822199	-0.928236	0.109388
0.096585	-0.882350	-0.981308	0.096585
0.100964	-0.907986	-1.011313	0.100964
0.093902	-0.893538	-0.984083	0.093902
0.086867	-0.856300	-0.945535	0.086867
0.091279	-0.859181	-0.947108	0.091279
0.112803	-0.804940	-0.914404	0.112803
0.122815	-0.790887	-0.910377	0.122815
0.104233	-0.845409	-0.946331	0.104233
0.108566	-0.888280	-0.993549	0.108566
0.118590	-0.856735	-0.972041	0.118590
0.111439	-0.831023	-0.944902	0.111439
0.121447	-0.816829	-0.934996	0.121447
0.114280	-0.762716	-0.879440	0.114280
0.118562	-0.691686	-0.806972	0.118562
0.122823	-0.757990	-0.877552	0.122823
0.115645	-0.824017	-0.936413	0.115645
0.102783	-0.855504	-0.960763	0.102783
0.112814	-0.795491	-0.905060	0.112814
0.122801	-0.764268	-0.883838	0.122801
0.121324	-0.773140	-0.896957	0.121324
0.108431	-0.816231	-0.927144	0.108431
0.129850	-0.824877	-0.957200	0.129850
0.145469	-0.827771	-0.975703	0.145469
0.138180	-0.836356	-0.971279	0.138180
0.130919	-0.793507	-0.926893	0.130919
0.117975	-0.767957	-0.888390	0.117975
0.127923	-0.833872	-0.964242	0.127923
0.120697	-0.836696	-0.959831	0.120697
0.124919	-0.782398	-0.909745	0.124919
0.157673	-0.762579	-0.916960	0.157673
0.173160	-0.731414	-0.901295	0.173160
0.182870	-0.757474	-0.942789	0.182870
0.169696	-0.783421	-0.949843	0.169696
0.150864	-0.746442	-0.894045	0.150864
0.160657	-0.755290	-0.912701	0.160657
0.164698	-0.769807	-0.936982	0.164698
0.145878	-0.784258	-0.932603	0.145878
0.138554	-0.810064	-0.951075	0.138554
0.159809	-0.801496	-0.958041	0.159809
0.180974	-0.747273	-0.924998	0.180974
0.179209	-0.727529	-0.909212	0.179209
0.183158	-0.747832	-0.933454	0.183158
0.192799	-0.756624	-0.946167	0.192799
0.179556	-0.742534	-0.924558	0.179556
0.183495	-0.722784	-0.903028	0.183495
0.175995	-0.748792	-0.927260	0.175995
0.157103	-0.746136	-0.905701	0.157103
0.155416	-0.749195	-0.907063	0.155416
0.182285	-0.717973	-0.896991	0.182285
0.180490	-0.704004	-0.881240	0.180490
0.184410	-0.752900	-0.934069	0.184410
0.171179	-0.767327	-0.935280	0.171179
0.163711	-0.718876	-0.885084	0.163711
0.179112	-0.750561	-0.926450	0.179112
0.200158	-0.776400	-0.973348	0.200158
0.192562	-0.716472	-0.911549	0.192562
0.179285	-0.702466	-0.878545	0.179285
0.148928	-0.757035	-0.908482	0.148928
0.147245	-0.777113	-0.921156	0.147245
0.134146	-0.762840	-0.893797	0.134146
0.103966	-0.725777	-0.832279	0.103966
0.108171	-0.683151	-0.793846	0.108171
0.089514	-0.663534	-0.755563	0.089514
0.088063	-0.649702	-0.740270	0.088063
0.098037	-0.681604	-0.776426	0.098037
0.079416	-0.736211	-0.818135	0.079416
0.066579	-0.762036	-0.831114	0.066579
0.065214	-0.759197	-0.821191	0.065214
0.046722	-0.790626	-0.834140	0.046722
0.028304	-0.816209	-0.841319	0.028304
0.009960	-0.784577	-0.791356	0.009960
0.008820	-0.781619	-0.787272	0.008820
-0.003736	-0.801508	-0.794618	-0.003736
-0.027664	-0.775626	-0.750533	-0.027664
-0.040073	-0.806947	-0.769434	-0.040073
-0.041012	-0.826712	-0.788250	-0.041012
-0.047659	-0.817838	-0.767009	-0.047659
-0.071410	-0.797572	-0.723005	-0.071410
-0.089354	-0.823064	-0.736278	-0.089354
-0.072963	-0.797053	-0.720937	-0.072963
-0.062350	-0.714038	-0.648548	-0.062350
-0.068913	-0.711301	-0.644972	-0.068913
-0.075449	-0.799935	-0.727059	-0.075449
-0.076249	-0.859647	-0.780251	-0.076249
-0.094178	-0.913396	-0.816085	-0.094178
-0.112033	-0.881263	-0.766110	-0.112033
-0.124105	-0.837833	-0.710622	-0.124105
-0.113287	-0.828836	-0.712456	-0.113287
-0.096803	-0.831289	-0.731406	-0.096803
-0.091807	-0.828014	-0.733140	-0.091807
-0.086833	-0.807615	-0.717729	-0.086833
-0.093300	-0.827264	-0.730924	-0.093300
-0.099741	-0.818274	-0.721216	-0.099741
-0.100446	-0.826445	-0.728672	-0.100446
-0.123990	-0.857416	-0.736089	-0.123990
-0.118886	-0.859702	-0.737758	-0.118886
-0.108092	-0.867681	-0.756544	-0.108092
-0.108764	-0.841357	-0.729561	-0.108764
-0.109434	-0.815134	-0.708392	-0.109434
-0.127232	-0.806143	-0.681592	-0.127232
-0.127827	-0.802891	-0.672026	-0.127827
-0.111288	-0.828197	-0.713884	-0.111288
-0.111948	-0.853392	-0.744142	-0.111948
-0.118316	-0.832794	-0.717165	-0.118316
-0.107528	-0.823694	-0.713133	-0.107528
-0.085363	-0.780361	-0.691978	-0.085363
-0.086132	-0.742910	-0.659482	-0.086132
-0.115449	-0.768418	-0.649953	-0.115449
-0.116094	-0.788106	-0.674718	-0.116094
-0.105317	-0.784864	-0.676533	-0.105317
-0.117425	-0.770207	-0.649781	-0.117425
-0.129484	-0.761315	-0.634553	-0.129484
-0.124363	-0.769582	-0.647931	-0.124363
-0.102133	-0.732127	-0.626986	-0.102133
-0.091414	-0.729080	-0.634671	-0.091414
-0.097871	-0.686067	-0.585214	-0.097871
-0.115722	-0.774561	-0.661580	-0.115722
-0.116370	-0.851265	-0.731916	-0.116370
-0.122725	-0.847703	-0.727721	-0.122725
-0.129055	-0.844148	-0.717826	-0.129055
-0.118228	-0.789206	-0.673702	-0.118228
-0.101735	-0.751614	-0.646881	-0.101735
-0.108152	-0.737010	-0.631584	-0.108152
-0.108832	-0.716749	-0.604922	-0.108832
-0.126641	-0.719406	-0.595493	-0.126641
-0.121535	-0.716335	-0.597517	-0.121535
-0.116451	-0.758952	-0.639498	-0.116451
-0.122809	-0.772836	-0.652748	-0.122809
-0.106300	-0.735264	-0.625964	-0.106300
-0.095568	-0.732100	-0.633545	-0.095568
-0.113433	-0.780336	-0.669639	-0.113433
-0.119805	-0.765554	-0.648475	-0.119805
-0.109019	-0.727983	-0.621680	-0.109019
-0.092568	-0.741953	-0.646380	-0.092568
-0.093316	-0.733017	-0.636710	-0.093316
-0.116902	-0.706981	-0.587100	-0.116902
-0.117551	-0.703885	-0.583369	-0.117551
-0.118197	-0.735058	-0.613908	-0.118197
-0.113130	-0.703282	-0.587212	-0.113130
-0.108085	-0.660210	-0.554908	-0.108085
-0.108771	-0.748645	-0.642647	-0.108771
-0.103744	-0.762477	-0.655785	-0.103744
-0.087318	-0.690590	-0.606048	-0.087318
-0.105221	-0.624702	-0.522246	-0.105221
-0.134472	-0.627601	-0.490173	-0.134472
-0.140762	-0.676165	-0.538171	-0.140762
-0.129895	-0.718813	-0.585965	-0.129895
-0.136204	-0.761280	-0.627846	-0.136204
-0.125356	-0.775015	-0.652418	-0.125356
-0.131684	-0.782975	-0.648330	-0.131684
-0.155117	-0.768054	-0.609989	-0.155117
-0.161323	-0.736057	-0.577509	-0.161323
-0.144662	-0.658500	-0.510892	-0.144662
-0.133780	-0.626938	-0.495936	-0.133780
-0.128653	-0.664023	-0.532427	-0.128653
-0.123547	-0.746632	-0.625865	-0.123547
-0.124172	-0.754662	-0.627549	-0.124172
-0.153347	-0.722679	-0.566404	-0.153347
-0.165271	-0.702241	-0.534055	-0.165271
-0.160015	-0.721852	-0.564645	-0.160015
-0.154781	-0.724245	-0.572262	-0.154781
-0.138147	-0.698070	-0.557000	-0.138147
-0.138712	-0.694837	-0.553214	-0.138712
-0.133565	-0.685899	-0.549437	-0.133565
-0.134150	-0.699833	-0.562799	-0.134150
-0.134732	-0.719414	-0.581810	-0.134732
-0.152443	-0.716066	-0.566475	-0.152443
-0.152950	-0.707015	-0.551195	-0.152950
-0.159166	-0.697994	-0.541682	-0.159166
-0.165356	-0.683293	-0.515070	-0.165356
-0.154389	-0.662935	-0.511402	-0.154389
-0.143467	-0.642654	-0.496321	-0.143467
-0.138301	-0.588188	-0.447035	-0.138301
-0.155997	-0.585332	-0.426496	-0.155997
-0.179330	-0.696688	-0.520241	-0.179330
-0.174017	-0.750478	-0.579334	-0.174017
-0.168724	-0.712676	-0.546813	-0.168724
-0.174874	-0.680731	-0.508709	-0.174874
-0.152447	-0.671753	-0.522146	-0.152447
-0.130112	-0.628542	-0.501260	-0.130112
-0.136420	-0.636895	-0.497585	-0.136420
-0.125571	-0.662338	-0.533890	-0.125571
-0.143318	-0.716223	-0.570039	-0.143318
-0.172413	-0.741327	-0.571772	-0.172413
-0.167127	-0.669247	-0.499256	-0.167127
-0.150442	-0.603165	-0.449873	-0.150442
-0.145246	-0.611582	-0.469209	-0.145246
-0.157202	-0.648511	-0.494171	-0.157202
-0.163398	-0.633888	-0.473341	-0.163398
-0.158149	-0.619319	-0.464011	-0.158149
-0.152921	-0.679038	-0.528947	-0.152921
-0.176265	-0.687112	-0.507956	-0.176265
-0.182383	-0.615202	-0.435651	-0.182383
-0.159924	-0.594973	-0.432160	-0.159924
-0.160398	-0.597662	-0.434388	-0.160398
-0.172291	-0.577493	-0.402339	-0.172291
-0.161293	-0.551690	-0.387547	-0.161293
-0.138920	-0.520277	-0.384230	-0.138920
-0.133769	-0.466146	-0.335239	-0.133769
-0.162901	-0.520727	-0.360677	-0.162901
-0.163363	-0.540818	-0.380296	-0.163363
-0.146691	-0.583662	-0.434090	-0.146691
-0.175770	-0.563511	-0.390583	-0.175770
-0.181888	-0.543436	-0.364380	-0.181888
-0.170850	-0.546279	-0.372540	-0.170850
-0.159857	-0.526264	-0.363531	-0.159857
-0.131778	-0.506325	-0.371683	-0.131778
-0.126656	-0.572117	-0.442611	-0.126656
-0.150106	-0.551979	-0.399036	-0.150106
-0.156329	-0.480525	-0.327081	-0.156329
-0.145395	-0.500723	-0.352492	-0.145395
-0.117375	-0.543674	-0.423476	-0.117375
-0.123732	-0.529341	-0.402798	-0.123732
-0.141484	-0.560743	-0.416461	-0.141484
-0.136322	-0.580590	-0.447193	-0.136322
-0.142602	-0.577508	-0.437821	-0.142602
-0.148856	-0.534461	-0.382798	-0.148856
-0.149374	-0.560108	-0.413650	-0.149374
-0.161310	-0.631327	-0.467211	-0.161310
-0.184618	-0.650854	-0.463444	-0.184618
-0.190699	-0.653164	-0.465395	-0.190699
-0.179624	-0.598355	-0.421650	-0.179624
-0.180015	-0.555184	-0.372368	-0.180015
-0.174693	-0.574998	-0.403226	-0.174693
-0.197945	-0.566173	-0.365428	-0.197945
-0.192549	-0.517405	-0.327780	-0.192549
-0.170044	-0.554487	-0.381646	-0.170044
-0.176182	-0.614252	-0.440995	-0.176182
-0.188005	-0.633794	-0.448703	-0.188005
-0.194069	-0.573304	-0.382138	-0.194069
-0.188687	-0.524477	-0.338682	-0.188687
-0.189037	-0.527237	-0.335371	-0.189037
-0.212227	-0.541401	-0.332068	-0.212227
-0.212480	-0.572631	-0.357325	-0.212480
-0.207020	-0.598017	-0.388183	-0.207020
-0.218714	-0.617583	-0.396068	-0.218714
-0.224648	-0.631351	-0.403914	-0.224648
-0.190585	-0.553692	-0.360330	-0.190585
-0.185213	-0.516316	-0.334050	-0.185213
-0.191284	-0.536192	-0.342134	-0.191284
-0.191618	-0.555980	-0.367310	-0.191618
-0.209082	-0.627073	-0.415219	-0.209082
-0.215053	-0.612214	-0.400112	-0.215053
-0.198157	-0.603120	-0.402192	-0.198157
-0.204172	-0.594057	-0.387126	-0.204172
-0.227292	-0.562183	-0.332145	-0.227292
-0.221765	-0.530433	-0.311645	-0.221765
-0.199129	-0.544490	-0.342616	-0.199129
-0.193717	-0.512801	-0.322063	-0.193717
-0.211167	-0.509788	-0.295878	-0.211167
-0.211414	-0.546753	-0.332609	-0.211414
-0.205949	-0.572140	-0.363473	-0.205949
-0.194796	-0.523183	-0.325682	-0.194796
-0.183688	-0.451580	-0.270909	-0.183688
-0.184045	-0.505891	-0.324852	-0.184045
-0.178691	-0.571395	-0.395699	-0.178691
-0.144806	-0.625204	-0.477671	-0.144806
-0.128191	-0.581710	-0.456515	-0.128191
-0.128776	-0.515546	-0.378335	-0.128776
-0.123647	-0.426807	-0.300471	-0.123647
-0.095698	-0.292743	-0.194368	-0.095698
-0.062154	-0.176356	-0.111537	-0.062154
-0.011617	-0.060442	-0.051883	-0.011617
0.090105	0.106392	0.013240	0.090105
0.151436	0.278253	0.129491	0.151436
0.172541	0.380886	0.205296	0.172541
0.170716	0.448834	0.275081	0.170716
0.191737	0.527923	0.338870	0.191737
0.184118	0.640947	0.459501	0.184118
0.170817	0.753503	0.585346	0.170817
0.117595	0.871305	0.756357	0.117595
0.064590	0.960066	0.898111	0.064590
0.051772	1.082719	1.027860	0.051772
0.027584	1.056394	1.031444	0.027584
-0.047898	0.887411	0.937931	-0.047898
-0.163045	0.667722	0.833376	-0.163045
-0.266299	0.426087	0.689273	-0.266299
-0.380550	0.231122	0.614281	-0.380550
-0.511461	0.134031	0.648089	-0.511461
-0.658964	0.054469	0.710307	-0.658964
-0.748755	-0.047608	0.698033	-0.748755
-0.718257	-0.052189	0.668675	-0.718257
-0.665037	-0.096722	0.570910	-0.665037
-0.617741	-0.209594	0.405020	-0.617741
-0.542084	-0.293449	0.251229	-0.542084
-0.461022	-0.314142	0.149462	-0.461022
-0.391711	-0.380430	0.013850	-0.391711
-0.339812	-0.417890	-0.075520	-0.339812
-0.282413	-0.392378	-0.113129	-0.282413
-0.248090	-0.349835	-0.104898	-0.248090
-0.225327	-0.296041	-0.068145	-0.225327
-0.231208	-0.276725	-0.048671	-0.231208
-0.231353	-0.297457	-0.069246	-0.231353
-0.214367	-0.363782	-0.152546	-0.214367
-0.191739	-0.367018	-0.178399	-0.191739
-0.197754	-0.387366	-0.187011	-0.197754
-0.180903	-0.384786	-0.201293	-0.180903
-0.175541	-0.410763	-0.232644	-0.175541
-0.181622	-0.390946	-0.206758	-0.181622
-0.204808	-0.376915	-0.175264	-0.204808
-0.210767	-0.414331	-0.206709	-0.210767
-0.205281	-0.434457	-0.232310	-0.205281
-0.194106	-0.448785	-0.252091	-0.194106
-0.194398	-0.463049	-0.266076	-0.194398
-0.206107	-0.482959	-0.274289	-0.206107
-0.189217	-0.417128	-0.231070	-0.189217
-0.172396	-0.368692	-0.199444	-0.172396
-0.172774	-0.354712	-0.179365	-0.172774
-0.167439	-0.317944	-0.147943	-0.167439
-0.162126	-0.366976	-0.202300	-0.162126
-0.173966	-0.398672	-0.222168	-0.173966
-0.174336	-0.390261	-0.213399	-0.174336
-0.191835	-0.427562	-0.238924	-0.191835
-0.175000	-0.430443	-0.252918	-0.175000
-0.152523	-0.404756	-0.249720	-0.152523
-0.152979	-0.402010	-0.252240	-0.152979
-0.164854	-0.393560	-0.226194	-0.164854
-0.159549	-0.385140	-0.223090	-0.159549
-0.148555	-0.348198	-0.202865	-0.148555
-0.160447	-0.351375	-0.194138	-0.160447
-0.166580	-0.383086	-0.213994	-0.166580
-0.161266	-0.386110	-0.228054	-0.161266
-0.133133	-0.354856	-0.224921	-0.133133
-0.122246	-0.323725	-0.204666	-0.122246
-0.117114	-0.298427	-0.178778	-0.117114
-0.129134	-0.296070	-0.164413	-0.129134
-0.146815	-0.299429	-0.155814	-0.146815
-0.153002	-0.297059	-0.147245	-0.153002
-0.142034	-0.294696	-0.155839	-0.142034
-0.136820	-0.286627	-0.147262	-0.136820
-0.137338	-0.278587	-0.138716	-0.137338
-0.126433	-0.264866	-0.141623	-0.126433
-0.121282	-0.325432	-0.201616	-0.121282
-0.127574	-0.345772	-0.215677	-0.127574
-0.139550	-0.326053	-0.183994	-0.139550
-0.140057	-0.317831	-0.180987	-0.140057
-0.129140	-0.309637	-0.177989	-0.129140
-0.135399	-0.352866	-0.220681	-0.135399
-0.135922	-0.350231	-0.211801	-0.135922
-0.136443	-0.319050	-0.185821	-0.136443
-0.119831	-0.265152	-0.142813	-0.119831
-0.120417	-0.245732	-0.122819	-0.120417
-0.115291	-0.243519	-0.131454	-0.115291
-0.098765	-0.247021	-0.145760	-0.098765
-0.110859	-0.233374	-0.120031	-0.110859
-0.117193	-0.202649	-0.082984	-0.117193
-0.123501	-0.240570	-0.114608	-0.123501
-0.118363	-0.261201	-0.140389	-0.118363
-0.090404	-0.201799	-0.114668	-0.090404
-0.102533	-0.188319	-0.089048	-0.102533
-0.108902	-0.237705	-0.132053	-0.108902
-0.126665	-0.321146	-0.197720	-0.126665
-0.144355	-0.318587	-0.177458	-0.144355
-0.122001	-0.293192	-0.174407	-0.122001
-0.105448	-0.279318	-0.171363	-0.105448
-0.083253	-0.219814	-0.139776	-0.083253
-0.072570	-0.189102	-0.114025	-0.072570
-0.084773	-0.198484	-0.111217	-0.084773
-0.091215	-0.190694	-0.096996	-0.091215
-0.091921	-0.182932	-0.094250	-0.091921
-0.081204	-0.180908	-0.102933	-0.081204
-0.076241	-0.173180	-0.100155	-0.076241
-0.077009	-0.211162	-0.131648	-0.077009
-0.066354	-0.180462	-0.117324	-0.066354
-0.038612	-0.161305	-0.120187	-0.038612
-0.045246	-0.165064	-0.123034	-0.045246
-0.057564	-0.163094	-0.103025	-0.057564
-0.046991	-0.189681	-0.140197	-0.046991
-0.042172	-0.193314	-0.148661	-0.042172
-0.048794	-0.174088	-0.128534	-0.048794
-0.049680	-0.177778	-0.125617	-0.049680
-0.044852	-0.175740	-0.128419	-0.044852
-0.011492	-0.156576	-0.142626	-0.011492
-0.006822	-0.143197	-0.133929	-0.006822
-0.025014	-0.135581	-0.113843	-0.025014
-0.043131	-0.150834	-0.105257	-0.043131
-0.049754	-0.143180	-0.096702	-0.049754
-0.027800	-0.135555	-0.105309	-0.027800
-0.017356	-0.070854	-0.051064	-0.017356
-0.006956	-0.012127	-0.008458	-0.006956
-0.008021	-0.079265	-0.068810	-0.008021
-0.020503	-0.146126	-0.128911	-0.020503
-0.032934	-0.161316	-0.125948	-0.032934
-0.028184	-0.165021	-0.134414	-0.028184
-0.023455	-0.145866	-0.120001	-0.023455
-0.035876	-0.121077	-0.082801	-0.035876
-0.059668	-0.107806	-0.051460	-0.059668
-0.077653	-0.123139	-0.043086	-0.077653
-0.072723	-0.144116	-0.074715	-0.072723
-0.044973	-0.107901	-0.066239	-0.044973
-0.034468	-0.088963	-0.057794	-0.034468
-0.041138	-0.115782	-0.072221	-0.041138
-0.059201	-0.096806	-0.035193	-0.059201
-0.082901	-0.100746	-0.015445	-0.082901
-0.089374	-0.138930	-0.047167	-0.089374
-0.101531	-0.125561	-0.021653	-0.101531
-0.119348	-0.112244	0.009470	-0.119348
-0.131383	-0.087558	0.040469	-0.131383
-0.137657	-0.062970	0.077053	-0.137657
-0.155326	-0.038481	0.119200	-0.155326
-0.167212	-0.116875	0.052680	-0.167212
-0.173339	-0.172105	0.003566	-0.173339
-0.190861	-0.135739	0.057442	-0.190861
-0.208311	-0.133782	0.076837	-0.208311
-0.214268	-0.126119	0.090446	-0.214268
-0.214489	-0.192719	0.024056	-0.214489
-0.203288	-0.184808	0.015043	-0.203288
-0.203552	-0.148375	0.057464	-0.203552
-0.209526	-0.123509	0.088292	-0.209526
-0.244025	-0.138713	0.107576	-0.244025
-0.255541	-0.142432	0.109652	-0.255541
-0.272719	-0.203235	0.071749	-0.272719
-0.278405	-0.172421	0.108237	-0.278405
-0.249804	-0.090336	0.161709	-0.249804
-0.238450	-0.111371	0.129309	-0.238450
-0.249983	-0.160869	0.091334	-0.249983
-0.272888	-0.147347	0.122039	-0.272888
-0.272856	-0.122456	0.152621	-0.272856
-0.267114	-0.131927	0.137396	-0.267114
-0.278524	-0.187038	0.093684	-0.278524
-0.289886	-0.201948	0.090126	-0.289886
-0.278359	-0.153979	0.126556	-0.278359
-0.255458	-0.208990	0.048633	-0.255458
-0.249779	-0.229509	0.022424	-0.249779
-0.261254	-0.192838	0.070560	-0.261254
-0.266971	-0.150603	0.118500	-0.266971
-0.261242	-0.148509	0.109143	-0.261242
-0.266956	-0.117870	0.151219	-0.266956
-0.266934	-0.087353	0.181704	-0.266934
-0.272622	-0.125482	0.149252	-0.272622
-0.266865	-0.129190	0.139775	-0.266865
-0.261130	-0.115749	0.147470	-0.261130
-0.249707	-0.125202	0.120874	-0.249707
-0.266881	-0.151743	0.111519	-0.266881
-0.278273	-0.166752	0.107915	-0.278273
-0.278197	-0.147434	0.132879	-0.278197
-0.289540	-0.111062	0.174874	-0.289540
-0.295125	-0.097676	0.199567	-0.295125
-0.283554	-0.078632	0.207029	-0.283554
-0.283450	-0.082505	0.197331	-0.283450
-0.271924	-0.103490	0.164832	-0.271924
-0.260445	-0.101546	0.161020	-0.260445
-0.277562	-0.053923	0.220039	-0.277562
-0.277477	-0.063597	0.216003	-0.277477
-0.277391	-0.130331	0.149172	-0.277391
-0.277304	-0.133976	0.139719	-0.277304
-0.265795	-0.143313	0.118885	-0.265795
-0.260043	-0.101215	0.160953	-0.260043
-0.265733	-0.070708	0.191429	-0.265733
-0.277109	-0.086006	0.187520	-0.277109
-0.288437	-0.101238	0.189338	-0.288437
-0.288296	-0.139247	0.145468	-0.288296
-0.305285	-0.142834	0.158882	-0.305285
-0.299362	-0.117852	0.177954	-0.299362
-0.276331	-0.104390	0.168397	-0.276331
-0.247682	-0.062429	0.187432	-0.247682
-0.236280	-0.009216	0.223521	-0.236280
-0.230634	0.009519	0.242333	-0.230634
-0.242142	-0.011794	0.226807	-0.242142
-0.259311	-0.067278	0.188504	-0.259311
-0.276408	-0.048299	0.230304	-0.276408
-0.276303	-0.017974	0.260512	-0.276303
-0.281908	-0.022034	0.262046	-0.281908
-0.270357	-0.037495	0.235023	-0.270357
-0.253142	-0.047180	0.202402	-0.253142
-0.247416	-0.039692	0.204177	-0.247416
-0.253134	-0.049363	0.200235	-0.253134
-0.270247	-0.047571	0.219153	-0.270247
-0.281578	-0.017233	0.260835	-0.281578
-0.281441	-0.015569	0.262375	-0.281441
-0.269883	-0.025330	0.241068	-0.269883
-0.269791	-0.040758	0.231269	-0.269791
-0.263987	-0.056122	0.210092	-0.263987
-0.258207	-0.037158	0.217553	-0.258207
-0.263869	-0.018269	0.247827	-0.263869
-0.275216	-0.010876	0.260846	-0.275216
-0.292226	0.007909	0.296654	-0.292226
-0.280614	0.015199	0.292343	-0.280614
-0.274757	0.005330	0.276630	-0.274757
-0.286054	0.018345	0.306665	-0.286054
-0.268752	0.037018	0.302314	-0.268752
-0.251519	0.067038	0.315113	-0.251519
-0.257197	0.045543	0.299308	-0.257197
-0.268560	0.024138	0.289279	-0.268560
-0.279876	0.002822	0.279291	-0.279876
-0.268302	-0.006983	0.257924	-0.268302
-0.256774	-0.022457	0.236645	-0.256774
-0.262423	0.019238	0.278267	-0.262423
-0.268048	0.009372	0.279748	-0.268048
-0.267937	-0.011873	0.252671	-0.267937
-0.262116	-0.061580	0.202865	-0.262116
-0.244896	-0.008296	0.238919	-0.244896
-0.239166	0.027642	0.269115	-0.239166
-0.267721	-0.016510	0.253506	-0.267721
-0.296157	-0.060479	0.237962	-0.296157
-0.290212	-0.035742	0.256744	-0.290212
-0.290001	0.023158	0.309711	-0.290001
-0.261238	0.024716	0.282518	-0.261238
-0.244011	0.026269	0.272567	-0.244011
-0.272537	0.010687	0.285499	-0.272537
-0.289523	0.018012	0.304089	-0.289523
-0.283597	0.031019	0.311183	-0.283597
-0.289114	0.043975	0.329668	-0.289114
-0.277476	0.062590	0.342367	-0.277476
-0.277305	0.035447	0.309332	-0.277305
-0.277133	-0.008714	0.265011	-0.277133
-0.248408	0.021543	0.272266	-0.248408
-0.248352	0.051678	0.296622	-0.248352
-0.265425	0.024587	0.292328	-0.265425
-0.265296	0.014741	0.282341	-0.265296
-0.265166	0.050619	0.312367	-0.265166
-0.253614	0.069221	0.325140	-0.253614
-0.247819	0.064907	0.309310	-0.247819
-0.264887	0.054902	0.322095	-0.264887
-0.259043	0.090622	0.346250	-0.259043
-0.247511	0.126197	0.376015	-0.247511
-0.258866	0.087394	0.342845	-0.258866
-0.270173	0.025909	0.298390	-0.270173
-0.264301	0.044622	0.305510	-0.264301
-0.287003	0.006158	0.295471	-0.287003
-0.292480	0.013535	0.308314	-0.292480
-0.280802	0.072278	0.349656	-0.280802
-0.274880	0.125070	0.402250	-0.274880
-0.274691	0.097703	0.368973	-0.274691
-0.263081	0.047609	0.312990	-0.263081
-0.268648	0.054824	0.325761	-0.268648
-0.262770	0.056301	0.321349	-0.262770
-0.262624	0.046353	0.311245	-0.262624
-0.285320	0.053578	0.335444	-0.285320
-0.302210	0.032224	0.330992	-0.302210
-0.290477	0.039511	0.332269	-0.290477
-0.267370	0.081031	0.344961	-0.267370
-0.267198	0.070990	0.340471	-0.267198
-0.267025	0.060992	0.330288	-0.267025
-0.266851	0.073878	0.342988	-0.266851
-0.266676	0.092422	0.355637	-0.266676
-0.260790	0.116602	0.379654	-0.260790
-0.272057	0.146395	0.420703	-0.272057
-0.271856	0.153225	0.427321	-0.271856
-0.260234	0.160028	0.416780	-0.260234
-0.242948	0.183935	0.429123	-0.242948
-0.254282	0.224875	0.475677	-0.254282
-0.248438	0.248517	0.499198	-0.248438
-0.259747	0.209249	0.465517	-0.259747
-0.271009	0.153011	0.426263	-0.271009
-0.270802	0.171238	0.444272	-0.270802
-0.270594	0.183681	0.456497	-0.270594
-0.247544	0.218915	0.462959	-0.247544
-0.201746	0.254005	0.452263	-0.201746
-0.178976	0.243268	0.424479	-0.178976
-0.196270	0.243996	0.436781	-0.196270
-0.207783	0.278983	0.489003	-0.207783
-0.196405	0.308116	0.501037	-0.196405
-0.190784	0.274316	0.467339	-0.190784
-0.202316	0.240654	0.439487	-0.202316
-0.190958	0.212840	0.406039	-0.190958
-0.168225	0.225113	0.389857	-0.168225
-0.139874	0.243046	0.379452	-0.139874
-0.157322	0.220934	0.374799	-0.157322
-0.168987	0.153229	0.324482	-0.168987
-0.186313	0.154327	0.337185	-0.186313
-0.180727	0.189683	0.372677	-0.180727
-0.180872	0.202053	0.385182	-0.180872
-0.192437	0.220083	0.414766	-0.192437
-0.186823	0.266591	0.455649	-0.186823
-0.169810	0.278647	0.450681	-0.169810
-0.169997	0.256391	0.428601	-0.169997
-0.193024	0.211385	0.400900	-0.193024
-0.204534	0.229377	0.436126	-0.204534
-0.210287	0.258716	0.471206	-0.210287
-0.216014	0.230831	0.449038	-0.216014
-0.210296	0.163089	0.375567	-0.210296
-0.198890	0.175570	0.376631	-0.198890
-0.204661	0.210841	0.417662	-0.204661
-0.204697	0.223126	0.424262	-0.204697
-0.216152	0.178259	0.396573	-0.216152
-0.233269	0.144996	0.374706	-0.233269
-0.233184	0.163263	0.392901	-0.233184
-0.238808	0.181457	0.416731	-0.238808
-0.250118	0.165314	0.411911	-0.250118
-0.249960	0.172079	0.418531	-0.249960
-0.244090	0.201659	0.447963	-0.244090
-0.238243	0.196856	0.437302	-0.238243
-0.238129	0.186362	0.420974	-0.238129
-0.232304	0.187333	0.421842	-0.232304
-0.243632	0.205431	0.445547	-0.243632
-0.254912	0.212035	0.463444	-0.254912
-0.271855	0.195771	0.469845	-0.271855
-0.277306	0.213835	0.493350	-0.277306
-0.265602	0.226116	0.488206	-0.265602
-0.276786	0.169823	0.443109	-0.276786
-0.282211	0.108050	0.386775	-0.282211
-0.276193	0.115056	0.387774	-0.276193
-0.287327	0.127744	0.417320	-0.287327
-0.292705	0.163223	0.452454	-0.292705
-0.286637	0.170005	0.453182	-0.286637
-0.280593	0.171050	0.448195	-0.280593
-0.251730	0.177801	0.431806	-0.251730
-0.234405	0.213077	0.449746	-0.234405
-0.222860	0.191106	0.416218	-0.222860
-0.205650	0.157804	0.359986	-0.205650
-0.199930	0.147481	0.343955	-0.199930
-0.205653	0.148622	0.356542	-0.205653
-0.205641	0.235413	0.443310	-0.205641
-0.188497	0.350400	0.535433	-0.188497
-0.108609	0.482047	0.587203	-0.108609
-0.051889	0.618862	0.667312	-0.051889
-0.023953	0.743694	0.769930	-0.023953
0.032420	0.896561	0.860703	0.032420
0.060009	1.025956	0.962520	0.060009
0.087484	1.137682	1.046784	0.087484
0.109136	1.197551	1.090725	0.109136
0.107855	1.302849	1.191581	0.107855
0.112289	1.470520	1.360541	0.112289
0.110993	1.608943	1.500249	0.110993
0.046888	1.752497	1.702187	0.046888
0.000175	1.832637	1.834763	0.000175
-0.057768	1.746835	1.801183	-0.057768
-0.121184	1.649952	1.773439	-0.121184
-0.207181	1.427827	1.631590	-0.207181
-0.281404	1.172340	1.456048	-0.281404
-0.395293	1.003546	1.395422	-0.395293
-0.508713	0.846858	1.352166	-0.508713
-0.615955	0.719358	1.331920	-0.615955
-0.711331	0.655189	1.368850	-0.711331
-0.766340	0.608410	1.377069	-0.766340
-0.729752	0.567530	1.299590	-0.729752
-0.676177	0.492553	1.165317	-0.676177
-0.599976	0.395039	0.991614	-0.599976
-0.518371	0.372157	0.892851	-0.518371
-0.437098	0.377920	0.811618	-0.437098
-0.396126	0.429339	0.822078	-0.396126
-0.326767	0.486257	0.815360	-0.326767
-0.257691	0.445864	0.705879	-0.257691
-0.234578	0.371372	0.596843	-0.234578
-0.222979	0.291474	0.516803	-0.222979
-0.234267	0.246165	0.482770	-0.234267
-0.222666	0.258144	0.483138	-0.222666
-0.211112	0.298625	0.506343	-0.211112
-0.228155	0.287547	0.512320	-0.228155
-0.222285	0.276513	0.495430	-0.222285
-0.205018	0.294076	0.495737	-0.205018
-0.227792	0.283015	0.507463	-0.227792
-0.221920	0.283419	0.507717	-0.221920
-0.216071	0.249558	0.467996	-0.216071
-0.210244	0.250098	0.462698	-0.210244
-0.238701	0.279187	0.514523	-0.238701
-0.232779	0.279605	0.514742	-0.232779
-0.198328	0.302862	0.497826	-0.198328
-0.192568	0.297471	0.492398	-0.192568
-0.203962	0.269260	0.475569	-0.203962
-0.192466	0.264006	0.453098	-0.192466
-0.186727	0.298744	0.487820	-0.186727
-0.158169	0.350471	0.510978	-0.158169
-0.141147	0.350592	0.494066	-0.141147
-0.169877	0.322159	0.488642	-0.169877
-0.164227	0.322394	0.488949	-0.164227
-0.164308	0.276944	0.437860	-0.164308
-0.152969	0.231680	0.386978	-0.152969
-0.147384	0.266545	0.416249	-0.147384
-0.147533	0.324109	0.468239	-0.147533
-0.141969	0.330042	0.468622	-0.141969
-0.147849	0.295979	0.440450	-0.147849
-0.142282	0.324867	0.469495	-0.142282
-0.136738	0.376478	0.509840	-0.136738
-0.131216	0.387903	0.515755	-0.131216
-0.131426	0.382149	0.515934	-0.131426
-0.131634	0.347866	0.481848	-0.131634
-0.137551	0.325142	0.459320	-0.137551
-0.143444	0.308221	0.454014	-0.143444
-0.137890	0.337051	0.477280	-0.137890
-0.143780	0.354341	0.494738	-0.143780
-0.126803	0.365848	0.489281	-0.126803
-0.104185	0.388728	0.489555	-0.104185
-0.110210	0.388671	0.495536	-0.110210
-0.121921	0.382903	0.507201	-0.121921
-0.133583	0.394287	0.530236	-0.133583
-0.128065	0.394203	0.524624	-0.128065
-0.133990	0.371276	0.501901	-0.133990
-0.134180	0.297049	0.427876	-0.134180
-0.122948	0.308780	0.434097	-0.122948
-0.117471	0.331883	0.451712	-0.117471
-0.106306	0.366310	0.469253	-0.106306
-0.112317	0.366333	0.475300	-0.112317
-0.124014	0.377776	0.504161	-0.124014
-0.141372	0.360618	0.498640	-0.141372
-0.141527	0.332108	0.476009	-0.141527
-0.147391	0.320846	0.470599	-0.147391
-0.141810	0.361021	0.499471	-0.141810
-0.124830	0.349637	0.471120	-0.124830
-0.107918	0.338299	0.448594	-0.107918
-0.119628	0.355558	0.477551	-0.119628
-0.125578	0.355613	0.483546	-0.125578
-0.142924	0.349957	0.495224	-0.142924
-0.143067	0.384295	0.529694	-0.143067
-0.131788	0.384229	0.512628	-0.131788
-0.143396	0.367030	0.507050	-0.143396
-0.114983	0.378453	0.495782	-0.114983
-0.092397	0.389826	0.478848	-0.092397
-0.087033	0.372600	0.461981	-0.087033
-0.104532	0.383995	0.490864	-0.104532
-0.110539	0.383921	0.491075	-0.110539
-0.099389	0.378135	0.479863	-0.099389
-0.093995	0.423764	0.514376	-0.093995
-0.082913	0.469204	0.554457	-0.082913
-0.083296	0.411670	0.497295	-0.083296
-0.066546	0.411474	0.480337	-0.066546
-0.066995	0.371304	0.440606	-0.066995
-0.038891	0.354138	0.395325	-0.038891
-0.039454	0.394144	0.435883	-0.039454
-0.068566	0.416854	0.487694	-0.068566
-0.074717	0.410917	0.482188	-0.074717
-0.075133	0.439265	0.516674	-0.075133
-0.058415	0.473205	0.533885	-0.058415
-0.036056	0.467031	0.505341	-0.036056
-0.013788	0.449459	0.465491	-0.013788
-0.014453	0.471930	0.488616	-0.014453
-0.037957	0.477175	0.511644	-0.037957
-0.021392	0.453844	0.477472	-0.021392
-0.010606	0.442028	0.454859	-0.010606
0.000136	0.413127	0.409495	0.000136
0.016543	0.418604	0.398577	0.016543
0.004332	0.384085	0.381992	0.004332
-0.019251	0.452491	0.473970	-0.019251
-0.025606	0.509194	0.537018	-0.025606
-0.043356	0.468586	0.514149	-0.043356
-0.038192	0.439563	0.474242	-0.038192
-0.021628	0.433499	0.457337	-0.021628
-0.010843	0.456008	0.469050	-0.010843
-0.000103	0.495554	0.497845	-0.000103
0.010594	0.494963	0.486547	0.010594
0.009825	0.471531	0.463873	0.009825
-0.002362	0.459613	0.458421	-0.002362
-0.014499	0.459162	0.470119	-0.014499
-0.020876	0.464420	0.487479	-0.020876
-0.038648	0.463945	0.499054	-0.038648
-0.050636	0.452048	0.499159	-0.050636
-0.056866	0.445909	0.499262	-0.056866
-0.063069	0.468343	0.533623	-0.063069
-0.046406	0.490684	0.539290	-0.046406
-0.035522	0.518640	0.550641	-0.035522
-0.053233	0.495086	0.544812	-0.053233
-0.082293	0.483047	0.561845	-0.082293
-0.099813	0.511027	0.607357	-0.099813
-0.111550	0.504627	0.612707	-0.111550
-0.123238	0.509672	0.635163	-0.123238
-0.146299	0.474720	0.617551	-0.146299
-0.140712	0.405648	0.542905	-0.140712
-0.135148	0.399670	0.537086	-0.135148
-0.141026	0.450818	0.594101	-0.141026
-0.169721	0.484623	0.650880	-0.169721
-0.175456	0.438342	0.616057	-0.175456
-0.181166	0.380828	0.558532	-0.181166
-0.198272	0.374941	0.575474	-0.198272
-0.198176	0.403338	0.598054	-0.198176
-0.215210	0.420196	0.631959	-0.215210
-0.203621	0.414142	0.620039	-0.203621
-0.174947	0.408110	0.585323	-0.174947
-0.174941	0.436363	0.613560	-0.174941
-0.186355	0.435947	0.618836	-0.186355
-0.209141	0.435530	0.641218	-0.209141
-0.237543	0.446533	0.680636	-0.237543
-0.260117	0.354703	0.617102	-0.260117
-0.254044	0.308930	0.565246	-0.254044
-0.225154	0.337578	0.564992	-0.225154
-0.213511	0.360396	0.576157	-0.213511
-0.201914	0.348858	0.553011	-0.201914
-0.224625	0.331654	0.558509	-0.224625
-0.247242	0.320231	0.569691	-0.247242
-0.246923	0.365956	0.609377	-0.246923
-0.246604	0.394360	0.643185	-0.246604
-0.234864	0.382675	0.614038	-0.234864
-0.228880	0.405297	0.630690	-0.228880
-0.240050	0.387853	0.624429	-0.240050
-0.234042	0.336216	0.572507	-0.234042
-0.233767	0.336182	0.572187	-0.233767
-0.216360	0.358988	0.577576	-0.216360
-0.221865	0.358858	0.577229	-0.221865
-0.233056	0.353016	0.588301	-0.233056
-0.221357	0.364327	0.587904	-0.221357
-0.232547	0.398432	0.627478	-0.232547
-0.220848	0.415264	0.632623	-0.220848
-0.209195	0.414894	0.620613	-0.209195
-0.220430	0.425944	0.648621	-0.220430
-0.243037	0.431237	0.676511	-0.243037
-0.242709	0.419374	0.664309	-0.242709
-0.219540	0.436109	0.657865	-0.219540
-0.242146	0.435643	0.674283	-0.242146
-0.230396	0.406624	0.639238	-0.230396
-0.195851	0.440536	0.632884	-0.195851
-0.195708	0.474306	0.666525	-0.195708
-0.218406	0.473674	0.688603	-0.218406
-0.218168	0.398807	0.619221	-0.218168
-0.217929	0.369928	0.584382	-0.217929
-0.234821	0.358296	0.595365	-0.234821
-0.240221	0.335289	0.572037	-0.240221
-0.239887	0.346637	0.588774	-0.239887
-0.222421	0.397909	0.622570	-0.222421
-0.182184	0.448969	0.627672	-0.182184
-0.176373	0.465555	0.638460	-0.176373
-0.199136	0.436389	0.637779	-0.199136
-0.198962	0.424470	0.625677	-0.198962
-0.221630	0.418308	0.636461	-0.221630
-0.238492	0.417880	0.652908	-0.238492
-0.221022	0.411740	0.635022	-0.221022
-0.197912	0.422755	0.617205	-0.197912
-0.174894	0.445143	0.622299	-0.174894
-0.169101	0.467436	0.633078	-0.169101
-0.191882	0.472505	0.660940	-0.191882
-0.208857	0.471840	0.682974	-0.208857
-0.220052	0.454044	0.676362	-0.220052
-0.225488	0.464870	0.692614	-0.225488
-0.213770	0.481359	0.691663	-0.213770
-0.207808	0.429254	0.639320	-0.207808
-0.173318	0.440173	0.615739	-0.173318
-0.144678	0.445335	0.586540	-0.144678
-0.173258	0.439053	0.614560	-0.173258
-0.190298	0.455635	0.642462	-0.190298
-0.184426	0.460727	0.647405	-0.184426
-0.207129	0.402981	0.612351	-0.207129
-0.206895	0.368310	0.577436	-0.206895
-0.178110	0.408014	0.582634	-0.178110
-0.155151	0.447553	0.599227	-0.155151
-0.137996	0.458376	0.598618	-0.137996
-0.149461	0.480573	0.626559	-0.149461
-0.178009	0.474124	0.654382	-0.178009
-0.183598	0.461989	0.647825	-0.183598
-0.194873	0.449900	0.647001	-0.194873
-0.206101	0.454990	0.657597	-0.206101
-0.200149	0.431504	0.633884	-0.200149
-0.205642	0.425243	0.627394	-0.205642
-0.176848	0.447557	0.626638	-0.176848
-0.165302	0.435515	0.597329	-0.165302
-0.170933	0.446361	0.613819	-0.170933
-0.193671	0.457160	0.647368	-0.193671
-0.204893	0.422230	0.623673	-0.204893
-0.227489	0.376019	0.605782	-0.227489
-0.249990	0.392810	0.645063	-0.249990
-0.226714	0.438081	0.667048	-0.226714
-0.197822	0.431771	0.626125	-0.197822
-0.180468	0.419774	0.596786	-0.180468
-0.180314	0.424955	0.601826	-0.180314
-0.191580	0.430112	0.618262	-0.191580
-0.202798	0.446666	0.646047	-0.202798
-0.208258	0.480281	0.690846	-0.208258
-0.202274	0.428100	0.632670	-0.202274
-0.219154	0.341869	0.557598	-0.219154
-0.241674	0.347354	0.585616	-0.241674
-0.212707	0.421339	0.636356	-0.212707
-0.206698	0.443626	0.646913	-0.206698
-0.217842	0.448687	0.668842	-0.217842
-0.217519	0.442304	0.662126	-0.217519
-0.222906	0.401684	0.626881	-0.222906
-0.222559	0.401199	0.620328	-0.222559
-0.222211	0.417845	0.642350	-0.222211
-0.221863	0.428710	0.652857	-0.221863
-0.215805	0.416687	0.634764	-0.215805
-0.209769	0.416131	0.622452	-0.209769
-0.215178	0.387023	0.604476	-0.215178
-0.226272	0.386585	0.609411	-0.226272
-0.225899	0.420407	0.642873	-0.225899
-0.242657	0.414117	0.659063	-0.242657
-0.247923	0.419270	0.669473	-0.247923
-0.236035	0.401558	0.634152	-0.236035
-0.218483	0.366786	0.581841	-0.218483
-0.201002	0.383547	0.581133	-0.201002
-0.200721	0.405947	0.608977	-0.200721
-0.234702	0.399702	0.630991	-0.234702
-0.251411	0.370639	0.618650	-0.251411
-0.245208	0.364534	0.606355	-0.245208
-0.250450	0.352741	0.599816	-0.250450
-0.255668	0.352416	0.610432	-0.255668
-0.255152	0.374931	0.626710	-0.255152
-0.220374	0.437324	0.654338	-0.220374
-0.197157	0.436645	0.636166	-0.197157
-0.179745	0.413126	0.589512	-0.179745
-0.208084	0.423962	0.634411	-0.208084
-0.236306	0.411909	0.644860	-0.236306
-0.258701	0.394193	0.655261	-0.258701
-0.263870	0.416520	0.677036	-0.263870
-0.246175	0.427332	0.675876	-0.246175
-0.217129	0.438098	0.657586	-0.217129
-0.211042	0.397423	0.610814	-0.211042
-0.210689	0.368334	0.581360	-0.210689
-0.210336	0.379333	0.591995	-0.210336
-0.227113	0.390286	0.619714	-0.227113
-0.232398	0.435453	0.664446	-0.232398
-0.231950	0.440460	0.669018	-0.231950
-0.214371	0.405472	0.616464	-0.214371
-0.185442	0.382045	0.569831	-0.185442
-0.190891	0.404394	0.591909	-0.190891
-0.190607	0.403809	0.596761	-0.190607
-0.201742	0.408933	0.613011	-0.201742
-0.212830	0.425455	0.634899	-0.212830
-0.218161	0.453326	0.668115	-0.218161
-0.217758	0.458240	0.678348	-0.217758
-0.217354	0.474551	0.694245	-0.217354
-0.199820	0.525054	0.727203	-0.199820
-0.188066	0.563926	0.748600	-0.188066
-0.176359	0.528401	0.707091	-0.176359
-0.198960	0.515859	0.711429	-0.198960
-0.227177	0.549048	0.778558	-0.227177
-0.226725	0.519284	0.742621	-0.226725
-0.197721	0.466796	0.666853	-0.197721
-0.168835	0.477334	0.648494	-0.168835
-0.162906	0.522088	0.687309	-0.162906
-0.168422	0.452449	0.617464	-0.168422
-0.156782	0.434484	0.593583	-0.156782
-0.133768	0.462274	0.592638	-0.133768
-0.139399	0.444263	0.580271	-0.139399
-0.150716	0.443455	0.590792	-0.150716
-0.161985	0.454067	0.612687	-0.161985
-0.178917	0.401820	0.577384	-0.178917
-0.167226	0.401177	0.565064	-0.167226
-0.144162	0.480478	0.621313	-0.144162
-0.126901	0.502349	0.625935	-0.126901
-0.121130	0.472733	0.590562	-0.121130
-0.132513	0.426105	0.561039	-0.132513
-0.143848	0.436768	0.577316	-0.143848
-0.138004	0.475936	0.616364	-0.138004
-0.160735	0.463548	0.626696	-0.160735
-0.183371	0.456918	0.642691	-0.183371
-0.194493	0.421760	0.618644	-0.194493
-0.194146	0.426716	0.623242	-0.194146
-0.170958	0.437358	0.610687	-0.170958
-0.164995	0.442245	0.603888	-0.164995
-0.187606	0.395715	0.579983	-0.187606
-0.198702	0.395056	0.590432	-0.198702
-0.209751	0.382976	0.589415	-0.209751
-0.209333	0.410916	0.616948	-0.209333
-0.191783	0.438738	0.627234	-0.191783
-0.180014	0.432182	0.608921	-0.180014
-0.185422	0.431360	0.619231	-0.185422
-0.185097	0.379146	0.566680	-0.185097
-0.201902	0.372826	0.571444	-0.201902
-0.218636	0.360819	0.576184	-0.218636
-0.218170	0.371700	0.586611	-0.218170
-0.229123	0.371113	0.602701	-0.229123
-0.222899	0.381947	0.601590	-0.222899
-0.193858	0.421286	0.611900	-0.193858
-0.176354	0.449041	0.622163	-0.176354
-0.158920	0.448126	0.609538	-0.158920
-0.187239	0.418662	0.602671	-0.187239
-0.198309	0.383604	0.578697	-0.198309
-0.203622	0.400081	0.606209	-0.203622
-0.186070	0.467880	0.656446	-0.186070
-0.191430	0.478295	0.672210	-0.191430
-0.196766	0.408720	0.607960	-0.196766
-0.167816	0.430792	0.601071	-0.167816
-0.161825	0.464192	0.628469	-0.161825
-0.167278	0.411797	0.581515	-0.167278
-0.166996	0.382454	0.551881	-0.166996
-0.172425	0.427464	0.596598	-0.172425
-0.166409	0.438024	0.601155	-0.166409
-0.154706	0.334332	0.491483	-0.154706
-0.148759	0.305297	0.456490	-0.148759
-0.142836	0.304930	0.444479	-0.142836
-0.091253	0.378797	0.472486	-0.091253
-0.074143	0.469489	0.546057	-0.074143
-0.085653	0.548387	0.630744	-0.085653
-0.057143	0.626957	0.686527	-0.057143
-0.011619	0.722331	0.736367	-0.011619
0.028009	0.823020	0.797417	0.028009
0.101736	1.026076	0.921024	0.101736
0.163740	1.194030	1.026987	0.163740
0.214068	1.309894	1.098246	0.214068
0.281319	1.459534	1.180625	0.281319
0.302610	1.551447	1.245526	0.302610
0.272418	1.597289	1.327282	0.272418
0.225217	1.728584	1.500058	0.225217
0.189628	1.830776	1.643562	0.189628
0.148473	1.869721	1.723652	0.148473
0.107486	1.937043	1.826240	0.107486
0.083796	1.906999	1.819898	0.083796
0.025941	1.757145	1.733622	0.025941
-0.100201	1.545077	1.641975	-0.100201
-0.225825	1.311024	1.533559	-0.225825
-0.356643	1.112180	1.471257	-0.356643
-0.526895	0.954115	1.477722	-0.526895
-0.679313	0.825241	1.506990	-0.679313
-0.739736	0.771123	1.507573	-0.739736
-0.668568	0.757192	1.428198	-0.668568
-0.591976	0.686210	1.274902	-0.591976
-0.527113	0.609802	1.133644	-0.527113
-0.462511	0.562254	1.027217	-0.462511
-0.403880	0.520607	0.926928	-0.403880
-0.351196	0.513388	0.867015	-0.351196
-0.275884	0.534746	0.813050	-0.275884
-0.223718	0.561724	0.782141	-0.223718
-0.188896	0.560034	0.751352	-0.188896
-0.182765	0.541216	0.720683	-0.182765
-0.170948	0.522471	0.690133	-0.170948
-0.164888	0.469537	0.631152	-0.164888
-0.170272	0.433947	0.606669	-0.170272
-0.164212	0.461313	0.627964	-0.164212
-0.158175	0.471433	0.632036	-0.158175
-0.140740	0.441535	0.584692	-0.140740
-0.129086	0.457438	0.588931	-0.129086
-0.134610	0.433301	0.570307	-0.134610
-0.122978	0.420679	0.540333	-0.122978
-0.099973	0.408107	0.510478	-0.099973
-0.105612	0.395582	0.503582	-0.105612
-0.116937	0.423078	0.536682	-0.116937
-0.122504	0.444748	0.569642	-0.122504
-0.133758	0.460615	0.591042	-0.133758
-0.144964	0.379338	0.526695	-0.144964
-0.127572	0.361205	0.485448	-0.127572
-0.098829	0.457349	0.558573	-0.098829
-0.070202	0.501703	0.568579	-0.070202
-0.075954	0.437376	0.510017	-0.075954
-0.087392	0.418991	0.503083	-0.087392
-0.081651	0.394968	0.473331	-0.081651
-0.093064	0.376750	0.472250	-0.093064
-0.115850	0.352894	0.465458	-0.115850
-0.115700	0.369105	0.481532	-0.115700
-0.092708	0.385247	0.480405	-0.092708
-0.081230	0.378478	0.462147	-0.081230
-0.081218	0.388865	0.466802	-0.081218
-0.081206	0.393496	0.477144	-0.081206
-0.109745	0.380974	0.487439	-0.109745
-0.126745	0.379921	0.503399	-0.126745
-0.115122	0.350317	0.467896	-0.115122
-0.086415	0.372225	0.455376	-0.086415
-0.074956	0.411171	0.482876	-0.074956
-0.069253	0.455665	0.527389	-0.069253
-0.080704	0.460000	0.537454	-0.080704
-0.109237	0.367239	0.473240	-0.109237
-0.091971	0.383351	0.477808	-0.091971
-0.069063	0.422235	0.493773	-0.069063
-0.074801	0.449536	0.521090	-0.074801
-0.091934	0.419618	0.508319	-0.091934
-0.069024	0.384109	0.449913	-0.069024
-0.051918	0.405845	0.454555	-0.051918
-0.052012	0.410358	0.464885	-0.052012
-0.052105	0.397719	0.452328	-0.052105
-0.075038	0.339445	0.416977	-0.075038
-0.086456	0.344221	0.438870	-0.086456
-0.069274	0.406078	0.472090	-0.069274
-0.052162	0.439126	0.488039	-0.052162
-0.046540	0.426353	0.475367	-0.046540
-0.058072	0.407919	0.462743	-0.058072
-0.052424	0.446659	0.495849	-0.052424
-0.041089	0.462397	0.505974	-0.041089
-0.064062	0.455224	0.516054	-0.064062
-0.069808	0.430947	0.497535	-0.069808
-0.064110	0.412475	0.473378	-0.064110
-0.058434	0.439759	0.500709	-0.058434
-0.075622	0.484058	0.562185	-0.075622
-0.058477	0.459647	0.514909	-0.058477
-0.012850	0.452464	0.467822	-0.012850
-0.013092	0.439596	0.455185	-0.013092
-0.024754	0.426778	0.454017	-0.024754
-0.030656	0.374036	0.407167	-0.030656
-0.042245	0.361479	0.400478	-0.042245
-0.042364	0.394653	0.439495	-0.042364
-0.036773	0.427688	0.466927	-0.036773
-0.025493	0.380640	0.402878	-0.025493
0.014292	0.408015	0.396191	0.014292
0.031074	0.423854	0.395239	0.031074
0.024945	0.451046	0.428548	0.024945
0.024551	0.500963	0.473138	0.024551
0.041291	0.470728	0.431886	0.041291
0.040830	0.412061	0.367958	0.040830
0.034662	0.382182	0.344261	0.034662
0.034228	0.415235	0.377761	0.034228
0.028086	0.470992	0.439672	0.028086
0.016259	0.475123	0.455643	0.016259
0.004480	0.433550	0.431572	0.004480
0.021302	0.420696	0.401886	0.021302
0.038054	0.413601	0.372317	0.038054
0.043318	0.463635	0.417100	0.043318
0.054270	0.473488	0.421724	0.054270
0.053756	0.363379	0.306409	0.053756
0.070375	0.385056	0.317190	0.070375
0.064084	0.418062	0.356475	0.064084
0.046398	0.393825	0.344204	0.046398
0.045915	0.415367	0.371951	0.045915
0.062565	0.436817	0.371031	0.062565
0.056306	0.412493	0.352979	0.056306
0.050071	0.428238	0.374970	0.050071
0.060993	0.409652	0.345475	0.060993
0.066160	0.419691	0.356070	0.066160
0.048464	0.423974	0.378039	0.048464
0.047971	0.445367	0.394204	0.047971
0.047480	0.495221	0.444561	0.047480
0.029860	0.482052	0.454735	0.029860
0.018022	0.388989	0.367788	0.018022
0.029074	0.359117	0.332587	0.029074
0.022950	0.375046	0.354630	0.022950
0.016851	0.385197	0.370869	0.016851
0.050750	0.418145	0.364197	0.050750
0.061668	0.462374	0.403231	0.061668
0.049700	0.466446	0.413550	0.049700
0.032070	0.459076	0.423823	0.032070
0.020223	0.423182	0.405499	0.020223
0.002714	0.415982	0.410087	0.002714
-0.009013	0.437359	0.448914	-0.009013
-0.026402	0.447224	0.470447	-0.026402
-0.038009	0.411363	0.446205	-0.038009
-0.038147	0.387066	0.427768	-0.038147
-0.049704	0.374285	0.420824	-0.049704
-0.049793	0.372974	0.425325	-0.049793
-0.067012	0.371665	0.441224	-0.067012
-0.072739	0.370358	0.445633	-0.072739
-0.089862	0.340501	0.432889	-0.089862
-0.106914	0.333605	0.437324	-0.106914
-0.106764	0.378127	0.481709	-0.106764
-0.106614	0.371071	0.474514	-0.106614
-0.112173	0.341199	0.450214	-0.112173
-0.100578	0.351418	0.448851	-0.100578
-0.106160	0.384434	0.493171	-0.106160
-0.111717	0.383049	0.497333	-0.111717
-0.151513	0.335983	0.484343	-0.151513
-0.162593	0.334790	0.499952	-0.162593
-0.145074	0.373571	0.521204	-0.145074
-0.139046	0.349377	0.490970	-0.139046
-0.133042	0.308147	0.443725	-0.133042
-0.132770	0.284214	0.413800	-0.132770
-0.155340	0.248956	0.406835	-0.155340
-0.154975	0.248103	0.405605	-0.154975
-0.166030	0.235829	0.404376	-0.166030
-0.188459	0.189342	0.374597	-0.188459
-0.187953	0.194436	0.384908	-0.187953
-0.187447	0.222349	0.406594	-0.187447
-0.175521	0.238725	0.416766	-0.175521
-0.175062	0.249321	0.426893	-0.175062
-0.146052	0.282712	0.425553	-0.146052
-0.162842	0.298833	0.464188	-0.162842
-0.179562	0.314885	0.496949	-0.179562
-0.179080	0.336579	0.512440	-0.179080
-0.172888	0.323919	0.493601	-0.172888
-0.172430	0.294177	0.469124	-0.172430
-0.143421	0.327368	0.467584	-0.143421
-0.120239	0.337578	0.460336	-0.120239
-0.125703	0.313482	0.435982	-0.125703
-0.131142	0.272350	0.400302	-0.131142
-0.142269	0.242805	0.387607	-0.142269
-0.176190	0.179116	0.352118	-0.176190
-0.192839	0.184211	0.373874	-0.192839
-0.180866	0.234965	0.412668	-0.180866
-0.163230	0.251247	0.417038	-0.163230
-0.145665	0.278881	0.421385	-0.145665
-0.145301	0.300688	0.448552	-0.145301
-0.173489	0.271011	0.441341	-0.173489
-0.178718	0.252873	0.434155	-0.178718
-0.161083	0.297620	0.461256	-0.161083
-0.160649	0.296499	0.453980	-0.160649
-0.160215	0.283959	0.446730	-0.160215
-0.142651	0.334281	0.479476	-0.142651
-0.147998	0.315870	0.466402	-0.147998
-0.159032	0.297532	0.453376	-0.159032
-0.141468	0.307817	0.446110	-0.141468
-0.146815	0.289506	0.438869	-0.146815
-0.152139	0.242715	0.397391	-0.152139
-0.163150	0.224665	0.384631	-0.163150
-0.168403	0.229528	0.394761	-0.168403
-0.162213	0.274341	0.433396	-0.162213
-0.144626	0.318968	0.460449	-0.144626
-0.127109	0.329147	0.453124	-0.127109
-0.138215	0.282178	0.417273	-0.138215
-0.149273	0.223978	0.370144	-0.149273
-0.148864	0.234538	0.380307	-0.148864
-0.148454	0.239343	0.384715	-0.148454
-0.136625	0.261256	0.400521	-0.136625
-0.130552	0.300207	0.433389	-0.130552
-0.124503	0.299024	0.420436	-0.124503
-0.129898	0.297843	0.424662	-0.129898
-0.123849	0.290954	0.417447	-0.123849
-0.134954	0.278379	0.415966	-0.134954
-0.151723	0.260143	0.408778	-0.151723
-0.139869	0.253400	0.395904	-0.139869
-0.128063	0.263813	0.394500	-0.128063
-0.144855	0.285601	0.427359	-0.144855
-0.144446	0.278746	0.425817	-0.144446
-0.138327	0.243364	0.384305	-0.138327
-0.126521	0.253807	0.377221	-0.126521
-0.126182	0.264205	0.387293	-0.126182
-0.148685	0.240296	0.385899	-0.148685
-0.159673	0.239324	0.395927	-0.159673
-0.142063	0.289746	0.428752	-0.142063
-0.130234	0.311406	0.438596	-0.130234
-0.129872	0.287293	0.414133	-0.129872
-0.135221	0.257565	0.395477	-0.135221
-0.134836	0.239377	0.371183	-0.134836
-0.145872	0.215551	0.364115	-0.145872
-0.168281	0.203241	0.374204	-0.168281
-0.173466	0.190979	0.361405	-0.173466
-0.155787	0.230158	0.382917	-0.155787
-0.138178	0.263464	0.404337	-0.138178
-0.137771	0.233817	0.368562	-0.137771
-0.131654	0.244262	0.372902	-0.131654
-0.114140	0.254661	0.371509	-0.114140
-0.113827	0.242173	0.358698	-0.113827
-0.107803	0.281128	0.391618	-0.107803
-0.124645	0.331340	0.452950	-0.124645
-0.152836	0.318530	0.468344	-0.152836
-0.169490	0.248666	0.420857	-0.169490
-0.163232	0.207638	0.367849	-0.163232
-0.139867	0.155354	0.292213	-0.139867
-0.128017	0.166096	0.296828	-0.128017
-0.104794	0.222475	0.329973	-0.104794
-0.115926	0.232939	0.345847	-0.115926
-0.149853	0.231936	0.384493	-0.149853
-0.155087	0.248066	0.405846	-0.155087
-0.154588	0.264127	0.415687	-0.154588
-0.142668	0.200175	0.345538	-0.142668
-0.136506	0.159324	0.298514	-0.136506
-0.147499	0.152901	0.297362	-0.147499
-0.135603	0.180764	0.313343	-0.135603
-0.135176	0.179959	0.312123	-0.135176
-0.146169	0.190577	0.339456	-0.146169
-0.162826	0.201148	0.360963	-0.162826
-0.139441	0.223095	0.365247	-0.139441
-0.133281	0.244949	0.375220	-0.133281
-0.121434	0.186767	0.305204	-0.121434
-0.109634	0.180214	0.292574	-0.109634
-0.109302	0.242210	0.348516	-0.109302
-0.137521	0.229714	0.369963	-0.137521
-0.154203	0.188717	0.339925	-0.154203
-0.130842	0.187857	0.321427	-0.130842
-0.130417	0.181288	0.314422	-0.130417
-0.147123	0.186164	0.330283	-0.147123
-0.135207	0.213860	0.351786	-0.135207
-0.134759	0.178627	0.316093	-0.134759
-0.140022	0.143535	0.280543	-0.140022
-0.128131	0.194241	0.325080	-0.128131
-0.127707	0.216185	0.340879	-0.127707
-0.144414	0.175223	0.316637	-0.144414
-0.149631	0.168689	0.321043	-0.149631
-0.143404	0.202152	0.348267	-0.143404
-0.125780	0.218345	0.341115	-0.125780
-0.125358	0.211627	0.333988	-0.125358
-0.119226	0.210645	0.332596	-0.119226
-0.124538	0.198244	0.319786	-0.124538
-0.135537	0.180182	0.318446	-0.135537
-0.157910	0.185032	0.345658	-0.157910
-0.151638	0.184151	0.332783	-0.151638
-0.151101	0.143298	0.291405	-0.151101
-0.150563	0.142583	0.295876	-0.150563
-0.150027	0.164711	0.311745	-0.150027
-0.132359	0.181036	0.310415	-0.132359
-0.114763	0.203002	0.320507	-0.114763
-0.137209	0.213455	0.347685	-0.137209
-0.159562	0.201022	0.363328	-0.159562
-0.164690	0.177216	0.338929	-0.164690
-0.169796	0.159217	0.331758	-0.169796
-0.157748	0.209813	0.364584	-0.157748
-0.157168	0.174544	0.328748	-0.157168
-0.139457	0.105156	0.247372	-0.139457
-0.121818	0.161678	0.286244	-0.121818
-0.115670	0.229387	0.342083	-0.115670
-0.109545	0.262554	0.374848	-0.109545
-0.131996	0.249900	0.378923	-0.131996
-0.131512	0.225874	0.360136	-0.131512
-0.142449	0.213365	0.352843	-0.142449
-0.147629	0.166643	0.311313	-0.147629
-0.152786	0.114400	0.264239	-0.152786
-0.135079	0.102341	0.234486	-0.135079
-0.111733	0.118882	0.233403	-0.111733
-0.122742	0.123933	0.249453	-0.122742
-0.145126	0.128962	0.276854	-0.145126
-0.138864	0.122547	0.258456	-0.138864
-0.126917	0.127578	0.257262	-0.126917
-0.143568	0.132587	0.278911	-0.143568
-0.137308	0.166124	0.306177	-0.137308
-0.136782	0.170971	0.310487	-0.136782
-0.119126	0.181506	0.297645	-0.119126
-0.112961	0.186286	0.301982	-0.112961
-0.129661	0.179623	0.306298	-0.129661
-0.140581	0.184406	0.327724	-0.140581
-0.140034	0.206298	0.349057	-0.140034
-0.139488	0.193836	0.336038	-0.139488
-0.133231	0.152871	0.288806	-0.133231
-0.126999	0.163465	0.287446	-0.126999
-0.109370	0.208275	0.320350	-0.109370
-0.091811	0.258610	0.347405	-0.091811
-0.097165	0.263053	0.357214	-0.097165
-0.108205	0.227503	0.338427	-0.108205
-0.124909	0.237778	0.359685	-0.124909
-0.135833	0.287981	0.420824	-0.135833
-0.123869	0.298003	0.424604	-0.123869
-0.106242	0.233746	0.342710	-0.106242
-0.100107	0.169750	0.266857	-0.100107
-0.093995	0.197379	0.288387	-0.093995
-0.099328	0.224893	0.321246	-0.099328
-0.127479	0.183767	0.313994	-0.127479
-0.121251	0.188491	0.312478	-0.121251
-0.109336	0.193192	0.305254	-0.109336
-0.097469	0.197872	0.298055	-0.097469
-0.085649	0.213951	0.296593	-0.085649
-0.045324	0.195700	0.243740	-0.045324
-0.033716	0.223204	0.253914	-0.033716
-0.044995	0.227751	0.275463	-0.044995
-0.056227	0.203725	0.262659	-0.056227
-0.067412	0.185506	0.249903	-0.067412
-0.089971	0.178780	0.271459	-0.089971
-0.106726	0.149237	0.252950	-0.106726
-0.089149	0.171207	0.263065	-0.089149
-0.083063	0.233056	0.313107	-0.083063
-0.088421	0.214706	0.300127	-0.088421
-0.093756	0.162165	0.258645	-0.093756
-0.099068	0.132680	0.234460	-0.099068
-0.110067	0.103313	0.210371	-0.110067
-0.115310	0.085485	0.197798	-0.115310
-0.131949	0.090570	0.225245	-0.131949
-0.119968	0.141316	0.263998	-0.119968
-0.130875	0.140459	0.268327	-0.130875
-0.107474	0.122472	0.232662	-0.107474
-0.089877	0.133109	0.225691	-0.089877
-0.095193	0.132280	0.230166	-0.095193
-0.134747	0.125742	0.263172	-0.134747
-0.139875	0.130649	0.273197	-0.139875
-0.156402	0.124114	0.277467	-0.156402
-0.150017	0.100473	0.253165	-0.150017
-0.126526	0.105479	0.234668	-0.126526
-0.125971	0.087622	0.210534	-0.125971
-0.113996	0.092677	0.209337	-0.113996
-0.113489	0.120551	0.236694	-0.113489
-0.124403	0.142599	0.269645	-0.124403
-0.112429	0.136003	0.251064	-0.112429
-0.111923	0.129433	0.238267	-0.111923
-0.122839	0.094335	0.214098	-0.122839
-0.122288	0.065091	0.190025	-0.122288
-0.133158	0.087357	0.223150	-0.133158
-0.138271	0.115241	0.250427	-0.138271
-0.126231	0.114458	0.243326	-0.126231
-0.108528	0.125096	0.236250	-0.108528
-0.119447	0.107138	0.229201	-0.119447
-0.130320	0.117803	0.250728	-0.130320
-0.135437	0.128423	0.260743	-0.135437
-0.123400	0.104735	0.225031	-0.123400
-0.099990	0.086853	0.189462	-0.099990
-0.076674	0.063333	0.142615	-0.076674
-0.064873	0.017066	0.084537	-0.064873
-0.053120	0.056642	0.106639	-0.053120
-0.058544	0.078924	0.140068	-0.058544
-0.046814	0.123955	0.167648	-0.046814
-0.023711	0.191641	0.217953	-0.023711
-0.000701	0.287598	0.285180	-0.000701
0.050767	0.377449	0.323576	0.050767
0.130575	0.529741	0.396072	0.130575
0.215767	0.692825	0.479687	0.215767
0.277767	0.843814	0.568665	0.277767
0.299539	0.965624	0.662982	0.299539
0.304090	1.052665	0.745485	0.304090
0.325750	1.139339	0.810512	0.325750
0.313058	1.214228	0.898105	0.313058
0.300416	1.334481	1.031012	0.300416
0.304955	1.488491	1.180496	0.304955
0.252370	1.624726	1.369329	0.252370
0.199999	1.726126	1.517403	0.199999
0.147841	1.690048	1.539228	0.147841
0.033083	1.522766	1.486716	0.033083
-0.086915	1.321893	1.411564	-0.086915
-0.206420	1.064727	1.268182	-0.206420
-0.291171	0.848578	1.142506	-0.291171
-0.409834	0.661857	1.074437	-0.409834
-0.533717	0.538707	1.069450	-0.533717
-0.611405	0.496002	1.104445	-0.611405
-0.591694	0.453465	1.042209	-0.591694
-0.543506	0.342575	0.888854	-0.543506
-0.489800	0.306369	0.798931	-0.489800
-0.413468	0.247466	0.663685	-0.413468
-0.326024	0.200222	0.523276	-0.326024
-0.250356	0.244534	0.497642	-0.250356
-0.214967	0.225848	0.437845	-0.214967
-0.174010	0.178683	0.349736	-0.174010
-0.138928	0.177392	0.319086	-0.138928
-0.126831	0.153263	0.277137	-0.126831
-0.120491	0.129230	0.246777	-0.120491
-0.119885	0.122424	0.239378	-0.119885
-0.124991	0.127064	0.249137	-0.124991
-0.112944	0.114553	0.224590	-0.112944
-0.072392	0.147773	0.217271	-0.072392
-0.060557	0.129462	0.192847	-0.060557
-0.048769	0.105513	0.157099	-0.048769
-0.037028	0.110212	0.150046	-0.037028
-0.048176	0.109180	0.160150	-0.048176
-0.070697	0.102439	0.175920	-0.070697
-0.081705	0.090014	0.174491	-0.081705
-0.075535	0.094768	0.167354	-0.075535
-0.075099	0.065240	0.137403	-0.075099
-0.046112	0.012990	0.061888	-0.046112
-0.040084	0.040896	0.078045	-0.040084
-0.039790	0.108660	0.151237	-0.039790
-0.062338	0.119040	0.178444	-0.062338
-0.061950	0.043721	0.102750	-0.061950
-0.050142	0.025812	0.078756	-0.050142
-0.061223	0.002266	0.066279	-0.061223
-0.055127	0.030207	0.082402	-0.055127
-0.037633	0.075163	0.109877	-0.037633
-0.043051	0.074251	0.114396	-0.043051
-0.048447	0.056210	0.113183	-0.048447
-0.053818	0.061083	0.117682	-0.053818
-0.047747	0.094485	0.145002	-0.047747
-0.041698	0.093487	0.132234	-0.041698
-0.058515	0.035388	0.090964	-0.058515
-0.035290	0.051760	0.089833	-0.035290
-0.006448	0.073773	0.082994	-0.006448
0.010855	0.101405	0.087601	0.010855
0.005247	0.111790	0.103606	0.005247
-0.006047	0.082159	0.085282	-0.006047
-0.017295	0.041227	0.055610	-0.017295
-0.039916	0.011881	0.048898	-0.039916
-0.033892	0.074020	0.105025	-0.033892
-0.016471	0.090220	0.109526	-0.016471
0.006590	0.123482	0.114006	0.006590
0.006715	0.099503	0.089914	0.006715
0.001131	0.047069	0.043076	0.001131
0.018411	0.080502	0.064952	0.018411
-0.004351	0.056694	0.063894	-0.004351
-0.038439	0.061533	0.097100	-0.038439
-0.015284	0.089192	0.101616	-0.015284
0.007777	0.093894	0.083270	0.007777
0.025034	0.087155	0.059286	0.025034
0.019379	0.057600	0.041108	0.019379
0.019459	0.062426	0.040133	0.019459
0.030959	0.061521	0.033449	0.030959
0.013862	0.043487	0.026791	0.013862
-0.008876	0.025525	0.031579	-0.008876
0.002743	0.041897	0.042055	0.002743
0.008604	0.075332	0.063907	0.008604
0.014442	0.068655	0.057115	0.014442
0.025966	0.090556	0.067480	0.025966
0.065996	0.118076	0.049248	0.065996
0.088731	0.134060	0.048220	0.088731
0.071400	0.087162	0.018641	0.071400
0.042721	0.080427	0.034865	0.042721
0.014158	0.090849	0.079571	0.014158
0.031396	0.089806	0.055568	0.031396
0.054275	0.083054	0.031661	0.054275
0.054218	0.070619	0.019271	0.054218
0.054162	0.092494	0.041191	0.054162
0.065527	0.108567	0.045887	0.065527
0.082556	0.090310	0.010591	0.082556
0.082384	0.083547	0.003988	0.082384
0.076503	0.122493	0.043093	0.076503
0.070646	0.092752	0.024933	0.070646
0.059103	0.080263	0.018265	0.059103
0.070448	0.090664	0.023043	0.070448
0.081747	0.095310	0.010669	0.081747
0.093000	0.111356	0.021184	0.093000
0.087076	0.161596	0.071627	0.087076
0.092597	0.137394	0.041916	0.092597
0.080964	0.079026	-0.004807	0.080964
0.086510	0.066578	-0.022788	0.086510
0.097743	0.105572	0.010695	0.097743
0.114640	0.121563	0.004067	0.114640
0.120048	0.114645	-0.008246	0.120048
0.131143	0.096333	-0.031931	0.131143
0.153613	0.089514	-0.061231	0.153613
0.153149	0.059880	-0.090412	0.153149
0.124135	0.036076	-0.085214	0.124135
0.078109	0.035209	-0.040065	0.078109
0.083663	0.080027	-0.006524	0.083663
0.106327	0.107528	0.004037	0.106327
0.117476	0.072102	-0.042550	0.117476
0.122869	0.025397	-0.094659	0.122869
0.145371	0.053117	-0.089452	0.145371
0.144939	0.080722	-0.061427	0.144939
0.144508	0.108211	-0.033517	0.144508
0.121237	0.135586	0.011407	0.121237
0.126612	0.100033	-0.029509	0.126612
0.137676	0.036072	-0.104522	0.137676
0.148694	0.058026	-0.093573	0.148694
0.148245	0.108440	-0.042698	0.148245
0.142088	0.095832	-0.049136	0.142088
0.141665	0.037591	-0.106943	0.141665
0.112692	0.036690	-0.073148	0.112692
0.083838	0.058632	-0.028073	0.083838
0.060812	0.023380	-0.040287	0.060812
0.060722	0.039664	-0.023901	0.060722
0.072053	0.055879	-0.013295	0.072053
0.071917	0.054895	-0.019864	0.071917
0.077492	0.025362	-0.049250	0.077492
0.071624	0.024500	-0.049965	0.071624
0.077200	0.075033	0.000714	0.077200
0.054203	0.073964	0.016922	0.054203
0.031299	0.044346	0.010220	0.031299
0.019910	0.049110	0.032094	0.019910
0.008569	0.053853	0.042457	0.008569
0.014406	0.030023	0.012802	0.014406
0.014509	0.000578	-0.016733	0.014509
0.020322	0.005515	-0.011887	0.020322
0.003271	0.016141	0.015779	0.003271
-0.019420	0.026722	0.049039	-0.019420
-0.042017	-0.008425	0.036478	-0.042017
-0.058810	-0.037718	0.018256	-0.058810
-0.058403	-0.032631	0.028658	-0.058403
-0.052285	-0.004724	0.050437	-0.052285
-0.051902	-0.011194	0.037861	-0.051902
-0.040098	-0.011929	0.031045	-0.040098
-0.022632	-0.006952	0.018545	-0.022632
-0.039497	-0.019127	0.017514	-0.039497
-0.084845	-0.076936	0.010775	-0.084845
-0.101454	-0.088826	0.015482	-0.101454
-0.095151	-0.072116	0.025878	-0.095151
-0.077453	-0.032635	0.047650	-0.077453
-0.082667	-0.027578	0.052199	-0.082667
-0.087858	-0.056804	0.033887	-0.087858
-0.093026	-0.074491	0.015646	-0.093026
-0.086751	-0.103527	-0.013942	-0.086751
-0.086211	-0.081052	0.007982	-0.086211
-0.085671	-0.058669	0.029814	-0.085671
-0.073712	-0.053509	0.023003	-0.073712
-0.073221	-0.054082	0.016218	-0.073221
-0.061310	-0.100336	-0.036224	-0.061310
-0.060867	-0.117849	-0.059902	-0.060867
-0.066135	-0.101029	-0.037801	-0.066135
-0.065670	-0.078567	-0.015793	-0.065670
-0.065205	-0.061909	0.006123	-0.065205
-0.093293	-0.073871	0.022238	-0.093293
-0.098422	-0.074365	0.021153	-0.098422
-0.086399	-0.057726	0.025780	-0.086399
-0.097264	-0.035445	0.064649	-0.097264
-0.090952	-0.058939	0.034831	-0.090952
-0.073244	-0.076628	-0.000576	-0.073244
-0.061318	-0.048562	0.009842	-0.061318
-0.066570	-0.026322	0.043056	-0.066570
-0.066089	-0.027016	0.036160	-0.066089
-0.071319	-0.084811	-0.016393	-0.071319
-0.076526	-0.079557	-0.005919	-0.076526
-0.087421	-0.062904	0.027352	-0.087421
-0.086849	-0.074871	0.009091	-0.086849
-0.057726	-0.069659	-0.014808	-0.057726
-0.040142	-0.064469	-0.027190	-0.040142
-0.062601	-0.070722	-0.005261	-0.062601
-0.079257	-0.059819	0.016576	-0.079257
-0.073001	-0.083223	-0.007361	-0.073001
-0.066770	-0.106532	-0.036912	-0.066770
-0.071984	-0.078353	-0.003530	-0.071984
-0.077175	-0.090262	-0.010260	-0.077175
-0.070923	-0.056440	0.011588	-0.070923
-0.053274	-0.034179	0.021924	-0.053274
-0.052828	-0.114795	-0.064860	-0.052828
-0.080933	-0.149399	-0.065636	-0.080933
-0.074660	-0.109627	-0.037858	-0.074660
-0.074122	-0.104280	-0.033037	-0.074122
-0.073585	-0.121796	-0.045369	-0.073585
-0.055917	-0.076428	-0.017679	-0.055917
-0.049741	-0.059798	-0.012946	-0.049741
-0.037879	-0.054657	-0.019655	-0.037879
-0.066037	-0.089510	-0.026338	-0.066037
-0.076947	-0.107090	-0.032996	-0.076947
-0.064970	-0.078916	-0.011077	-0.064970
-0.058751	-0.079410	-0.017801	-0.058751
-0.058266	-0.102743	-0.041630	-0.058266
-0.063493	-0.097430	-0.036812	-0.063493
-0.062986	-0.086428	-0.026304	-0.062986
-0.056770	-0.092603	-0.038683	-0.056770
-0.050578	-0.081622	-0.033883	-0.050578
-0.032989	-0.036425	-0.006262	-0.032989
-0.044023	-0.071359	-0.024439	-0.044023
-0.043591	-0.066178	-0.019702	-0.043591
-0.048869	-0.078149	-0.026407	-0.048869
-0.059834	-0.118624	-0.061637	-0.059834
-0.059333	-0.136092	-0.079595	-0.059333
-0.041702	-0.136358	-0.091769	-0.041702
-0.046982	-0.090940	-0.046792	-0.046982
-0.057951	-0.079971	-0.024842	-0.057951
-0.074583	-0.097599	-0.025825	-0.074583
-0.074015	-0.120865	-0.043937	-0.074015
-0.079159	-0.126905	-0.044845	-0.079159
-0.078569	-0.161472	-0.080014	-0.078569
-0.055139	-0.155926	-0.103618	-0.055139
-0.060356	-0.116140	-0.052894	-0.060356
-0.048418	-0.099359	-0.053771	-0.048418
-0.042239	-0.099778	-0.060357	-0.042239
-0.053215	-0.117326	-0.066918	-0.053215
-0.069855	-0.129093	-0.056322	-0.069855
-0.063585	-0.089418	-0.028640	-0.063585
-0.063048	-0.118431	-0.052466	-0.063048
-0.062513	-0.175876	-0.116168	-0.062513
-0.056268	-0.170273	-0.111087	-0.056268
-0.050048	-0.153271	-0.106028	-0.050048
-0.038142	-0.130629	-0.095280	-0.038142
-0.026283	-0.096660	-0.067447	-0.026283
-0.054444	-0.114222	-0.056860	-0.054444
-0.076778	-0.086031	-0.012056	-0.076778
-0.076178	-0.132189	-0.053092	-0.076178
-0.069868	-0.166738	-0.099672	-0.069868
-0.069293	-0.172594	-0.106091	-0.069293
-0.057299	-0.138454	-0.078222	-0.057299
-0.051063	-0.138715	-0.090441	-0.051063
-0.056272	-0.133265	-0.079771	-0.056272
-0.072878	-0.110706	-0.034883	-0.072878
-0.077995	-0.162474	-0.081546	-0.077995
-0.083089	-0.174058	-0.088047	-0.083089
-0.082451	-0.185594	-0.100233	-0.082451
-0.076103	-0.168532	-0.095240	-0.076103
-0.058359	-0.117276	-0.061716	-0.058359
-0.052107	-0.111914	-0.062594	-0.052107
-0.051590	-0.157967	-0.103441	-0.051590
-0.039653	-0.146728	-0.104150	-0.039653
-0.044895	-0.101273	-0.059175	-0.044895
-0.055824	-0.107397	-0.048648	-0.055824
-0.055287	-0.170600	-0.112399	-0.055287
-0.066171	-0.193572	-0.124498	-0.066171
-0.059879	-0.182187	-0.119417	-0.059879
-0.059321	-0.165138	-0.108648	-0.059321
-0.047343	-0.159580	-0.109345	-0.047343
-0.046834	-0.154044	-0.110040	-0.046834
-0.069167	-0.182793	-0.116443	-0.069167
-0.062855	-0.171451	-0.105691	-0.062855
-0.067989	-0.125894	-0.060722	-0.067989
-0.073100	-0.074813	-0.004518	-0.073100
-0.083899	-0.121018	-0.034201	-0.083899
-0.071811	-0.155613	-0.086605	-0.071811
-0.042641	-0.150094	-0.110245	-0.042641
-0.025009	-0.138887	-0.110947	-0.025009
-0.030289	-0.161988	-0.128779	-0.030289
-0.041257	-0.184994	-0.140829	-0.041257
-0.029338	-0.167933	-0.141409	-0.029338
-0.051729	-0.168073	-0.119147	-0.051729
-0.068316	-0.128241	-0.062715	-0.068316
-0.067702	-0.122833	-0.057908	-0.067702
-0.061380	-0.157420	-0.093095	-0.061380
-0.043661	-0.151893	-0.111008	-0.043661
-0.026014	-0.123547	-0.094587	-0.026014
-0.059831	-0.163841	-0.106787	-0.059831
-0.064956	-0.226812	-0.164620	-0.064956
-0.070059	-0.221000	-0.147982	-0.070059
-0.080850	-0.192370	-0.108573	-0.080850
-0.063044	-0.152436	-0.092167	-0.063044
-0.022468	-0.146927	-0.121512	-0.022468
-0.004898	-0.141441	-0.133607	-0.004898
-0.010241	-0.158819	-0.151364	-0.010241
-0.021271	-0.158995	-0.134787	-0.021271
-0.049386	-0.204852	-0.152541	-0.049386
-0.071674	-0.244811	-0.175933	-0.071674
-0.082449	-0.227502	-0.142127	-0.082449
-0.076047	-0.164580	-0.091329	-0.076047
-0.052539	-0.153309	-0.097844	-0.052539
-0.057677	-0.182057	-0.127175	-0.057677
-0.039952	-0.176424	-0.139255	-0.039952
-0.050850	-0.170814	-0.122736	-0.050850
-0.061702	-0.188069	-0.129126	-0.061702
-0.055377	-0.205252	-0.146912	-0.055377
-0.049076	-0.210943	-0.158915	-0.049076
-0.054221	-0.199480	-0.148029	-0.054221
-0.036502	-0.188063	-0.154319	-0.036502
-0.041696	-0.176693	-0.137743	-0.041696
-0.041157	-0.153948	-0.109815	-0.041157
-0.040619	-0.165559	-0.127685	-0.040619
-0.057212	-0.165700	-0.105511	-0.057212
-0.073737	-0.137290	-0.060588	-0.073737
-0.067351	-0.166099	-0.095794	-0.067351
-0.049569	-0.137687	-0.085175	-0.049569
-0.031859	-0.109391	-0.074601	-0.031859
-0.019930	-0.109763	-0.086913	-0.019930
-0.013760	-0.110134	-0.099176	-0.013760
-0.013324	-0.087662	-0.077128	-0.013324
-0.024309	-0.082413	-0.060882	-0.024309
-0.040959	-0.100028	-0.061835	-0.040959
-0.057539	-0.106151	-0.051365	-0.057539
-0.045499	-0.066566	-0.023809	-0.045499
-0.027796	-0.089957	-0.064891	-0.027796
-0.038716	-0.136095	-0.094386	-0.038716
-0.038170	-0.153491	-0.112341	-0.038170
-0.003362	-0.125134	-0.118802	-0.003362
0.002752	-0.091183	-0.096687	0.002752
-0.025420	-0.120185	-0.097505	-0.025420
-0.013503	-0.171909	-0.155424	-0.013503
-0.001635	-0.200581	-0.195975	-0.001635
0.010187	-0.149189	-0.156417	0.010187
0.033381	-0.075167	-0.105600	0.033381
0.050770	-0.075683	-0.129228	0.050770
0.028117	-0.081908	-0.112787	0.028117
-0.000153	-0.145210	-0.147807	-0.000153
-0.016886	-0.225385	-0.211236	-0.016886
0.012133	-0.225285	-0.234434	0.012133
0.029613	-0.190924	-0.223275	0.029613
0.007051	-0.202385	-0.206451	0.007051
-0.003998	-0.196668	-0.195407	-0.003998
0.019261	-0.133871	-0.155857	0.019261
0.025295	-0.122724	-0.145022	0.025295
0.014174	-0.117333	-0.128521	0.014174
-0.025453	-0.191909	-0.169192	-0.025453
-0.059206	-0.249048	-0.192566	-0.059206
-0.069977	-0.248848	-0.175873	-0.069977
-0.063573	-0.208677	-0.147828	-0.063573
-0.040062	-0.191510	-0.154161	-0.040062
-0.010935	-0.202966	-0.189020	-0.010935
-0.004769	-0.214373	-0.206606	-0.004769
-0.010047	-0.191472	-0.184148	-0.010047
-0.026723	-0.168663	-0.144651	-0.026723
-0.060461	-0.197341	-0.139579	-0.060461
-0.065508	-0.231611	-0.168791	-0.065508
-0.064822	-0.242899	-0.180752	-0.064822
-0.058427	-0.254140	-0.198376	-0.058427
-0.057768	-0.259623	-0.204507	-0.057768
-0.045689	-0.213690	-0.164931	-0.045689
-0.045079	-0.196496	-0.154069	-0.045079
-0.038759	-0.196503	-0.160384	-0.038759
-0.061016	-0.213640	-0.155252	-0.061016
-0.071760	-0.190734	-0.121591	-0.071760
-0.048196	-0.190763	-0.139462	-0.048196
-0.030438	-0.196502	-0.162970	-0.030438
-0.029882	-0.196506	-0.163542	-0.029882
-0.017907	-0.145117	-0.129850	-0.017907
0.011151	-0.133911	-0.147690	0.011151
0.022960	-0.157012	-0.176879	0.022960
-0.010961	-0.208570	-0.200238	-0.010961
-0.044742	-0.254206	-0.212081	-0.044742
-0.044121	-0.271103	-0.229586	-0.044121
-0.026371	-0.276508	-0.252730	-0.026371
-0.025824	-0.276180	-0.247228	-0.025824
-0.008146	-0.258721	-0.253169	-0.008146
0.009460	-0.258464	-0.270506	0.009460
0.026995	-0.241075	-0.264930	0.026995
0.033038	-0.178075	-0.213695	0.033038
0.027636	-0.098201	-0.128408	0.027636
0.062229	-0.070048	-0.129126	0.062229
0.108102	0.009383	-0.095580	0.108102
0.153787	0.111328	-0.039331	0.153787
0.216415	0.190012	-0.023287	0.216415
0.273076	0.371157	0.101186	0.273076
0.323792	0.568687	0.247987	0.323792
0.362879	0.674036	0.308528	0.362879
0.356121	0.721844	0.363105	0.356121
0.343678	0.803711	0.463137	0.343678
0.342705	0.925207	0.585594	0.342705
0.313182	0.966251	0.650440	0.313182
0.266647	1.041380	0.772115	0.266647
0.265984	1.196136	0.933256	0.265984
0.248192	1.298854	1.042334	0.248192
0.213340	1.246960	1.031037	0.213340
0.098686	1.035379	0.928411	0.098686
-0.009788	0.744710	0.751961	-0.009788
-0.083555	0.569430	0.650460	-0.083555
-0.202700	0.457676	0.657863	-0.202700
-0.349907	0.363505	0.716620	-0.349907
-0.473665	0.303978	0.780839	-0.473665
-0.545519	0.227559	0.770553	-0.545519
-0.514287	0.162871	0.680355	-0.514287
-0.448916	0.121287	0.567677	-0.448916
-0.395229	0.051319	0.444034	-0.395229
-0.347468	-0.069757	0.280918	-0.347468
-0.288478	-0.110393	0.181280	-0.288478
-0.212595	-0.150863	0.059205	-0.212595
-0.137020	-0.139774	0.000441	-0.137020
-0.096015	-0.077338	0.010439	-0.096015
-0.049465	-0.083682	-0.030999	-0.049465
-0.025947	-0.124263	-0.095111	-0.025947
-0.042495	-0.153257	-0.113279	-0.042495
-0.047554	-0.147871	-0.102822	-0.047554
-0.046880	-0.153927	-0.109540	-0.046880
-0.017657	-0.148538	-0.133363	-0.017657
0.005738	-0.194563	-0.202773	0.005738
0.011907	-0.268952	-0.283319	0.011907
0.012341	-0.245959	-0.260749	0.012341
0.018485	-0.177377	-0.192589	0.018485
-0.003947	-0.177600	-0.176102	-0.003947
-0.009156	-0.217794	-0.205365	-0.009156
0.014210	-0.217850	-0.228799	0.014210
0.026060	-0.172223	-0.195034	0.026060
0.032151	-0.178176	-0.212801	0.032151
0.043929	-0.218366	-0.264758	0.043929
0.038529	-0.189867	-0.230847	0.038529
0.044571	-0.178615	-0.219916	0.044571
0.050590	-0.218802	-0.266133	0.050590
0.050874	-0.224562	-0.277900	0.050874
0.056868	-0.213166	-0.272487	0.056868
0.051417	-0.218948	-0.267096	0.051417
0.063119	-0.196154	-0.256017	0.063119
0.074775	-0.190584	-0.262114	0.074775
0.069252	-0.202167	-0.273897	0.069252
0.063752	-0.213703	-0.274211	0.063752
0.046854	-0.196639	-0.245971	0.046854
0.041447	-0.219617	-0.257820	0.041447
0.041773	-0.208238	-0.252490	0.041773
0.042098	-0.214036	-0.252891	0.042098
0.042422	-0.236941	-0.281843	0.042422
0.054166	-0.185517	-0.236441	0.054166
0.065863	-0.174276	-0.236909	0.065863
0.088933	-0.185921	-0.271636	0.088933
0.094777	-0.191809	-0.289091	0.094777
0.083467	-0.209092	-0.295053	0.083467
0.066493	-0.220594	-0.283859	0.066493
0.061010	-0.186366	-0.249870	0.061010
0.055549	-0.146567	-0.198889	0.055549
0.067243	-0.158325	-0.228062	0.067243
0.084599	-0.175744	-0.262826	0.084599
0.101884	-0.164540	-0.268896	0.101884
0.096257	-0.227616	-0.326333	0.096257
0.062102	-0.250460	-0.315012	0.062102
0.056639	-0.233238	-0.292315	0.056639
0.068330	-0.227507	-0.298263	0.068330
0.085683	-0.210377	-0.292765	0.085683
0.097256	-0.187607	-0.281580	0.097256
0.108781	-0.164930	-0.270440	0.108781
0.120259	-0.199448	-0.316448	0.120259
0.137400	-0.193853	-0.333717	0.137400
0.137340	-0.165439	-0.299521	0.137340
0.114438	-0.148562	-0.265464	0.114438
0.103051	-0.183146	-0.288651	0.103051
0.114552	-0.223299	-0.340293	0.114552
0.120296	-0.166212	-0.288938	0.120296
0.120305	-0.092227	-0.214952	0.120305
0.114604	-0.127041	-0.244054	0.114604
0.120348	-0.156003	-0.278748	0.120348
0.137488	-0.196267	-0.330431	0.137488
0.137427	-0.196393	-0.330508	0.137427
0.114524	-0.196519	-0.313453	0.114524
0.108847	-0.236615	-0.342151	0.108847
0.126034	-0.225154	-0.347889	0.126034
0.137440	-0.213739	-0.347892	0.137440
0.160220	-0.196659	-0.359315	0.160220
0.188616	-0.139677	-0.325008	0.188616
0.188344	-0.117191	-0.302261	0.188344
0.176652	-0.129058	-0.308159	0.176652
0.165007	-0.203691	-0.365425	0.165007
0.147699	-0.209494	-0.359642	0.147699
0.141882	-0.181010	-0.325330	0.141882
0.136089	-0.192615	-0.331131	0.136089
0.158871	-0.175620	-0.331197	0.158871
0.181559	-0.152985	-0.336972	0.181559
0.192733	-0.147573	-0.342722	0.192733
0.203860	-0.147893	-0.348449	0.203860
0.192100	-0.188184	-0.376992	0.192100
0.180388	-0.211179	-0.393997	0.180388
0.180143	-0.176976	-0.353828	0.180143
0.179899	-0.160044	-0.336664	0.179899
0.191076	-0.160312	-0.348120	0.191076
0.202206	-0.171999	-0.370950	0.202206
0.213290	-0.155086	-0.370844	0.213290
0.235748	-0.132533	-0.370738	0.235748
0.218142	-0.121492	-0.342079	0.218142
0.189185	-0.156179	-0.347799	0.189185
0.183188	-0.185014	-0.364915	0.183188
0.182925	-0.196599	-0.376249	0.182925
0.216925	-0.168165	-0.381826	0.216925
0.205102	-0.191239	-0.398800	0.205102
0.216167	-0.145695	-0.358600	0.216167
0.244318	-0.157440	-0.404218	0.244318
0.255221	-0.152006	-0.403965	0.255221
0.214685	-0.146594	-0.358030	0.214685
0.197156	-0.175466	-0.369385	0.197156
0.196828	-0.198509	-0.397823	0.196828
0.185081	-0.187196	-0.369040	0.185081
0.196222	-0.141666	-0.334664	0.196222
0.213027	-0.170558	-0.386083	0.213027
0.212632	-0.199330	-0.414449	0.212632
0.206527	-0.165171	-0.374173	0.206527
0.189025	-0.159703	-0.345482	0.189025
0.183015	-0.159967	-0.339749	0.183015
0.171319	-0.194492	-0.368300	0.171319
0.159670	-0.200324	-0.356761	0.159670
0.159489	-0.171869	-0.333848	0.159489
0.159309	-0.149241	-0.305318	0.159309
0.159128	-0.138126	-0.294034	0.159128
0.136107	-0.138478	-0.277087	0.136107
0.113179	-0.138828	-0.248788	0.113179
0.084636	-0.179148	-0.260576	0.084636
0.061919	-0.213593	-0.272317	0.061919
0.073558	-0.173662	-0.249747	0.073558
0.096570	-0.173866	-0.267242	0.096570
0.090936	-0.271145	-0.358899	0.090936
0.079616	-0.299500	-0.381656	0.079616
0.068341	-0.247794	-0.312953	0.068341
0.045693	-0.241980	-0.284503	0.045693
0.011717	-0.259031	-0.273301	0.011717
0.000723	-0.310273	-0.313537	0.000723
0.001195	-0.275649	-0.273663	0.001195
0.013087	-0.201193	-0.211111	0.013087
0.024930	-0.201276	-0.223049	0.024930
0.036726	-0.275592	-0.314883	0.036726
0.031343	-0.269658	-0.303555	0.031343
0.020273	-0.275168	-0.292272	0.020273
-0.007883	-0.320626	-0.309587	-0.007883
-0.018791	-0.337345	-0.315410	-0.018791
0.004608	-0.262628	-0.264105	0.004608
0.010782	-0.245320	-0.252982	0.010782
-0.005910	-0.302316	-0.299007	-0.005910
-0.005403	-0.330525	-0.322003	-0.005403
0.012235	-0.318645	-0.333483	0.012235
0.018381	-0.295391	-0.316363	0.018381
-0.009760	-0.306493	-0.299313	-0.009760
-0.037784	-0.346100	-0.310884	-0.037784
-0.037141	-0.334150	-0.299565	-0.037141
-0.013658	-0.270854	-0.254031	-0.013658
-0.030243	-0.270630	-0.242945	-0.030243
-0.023917	-0.327509	-0.300427	-0.023917
-0.006195	-0.298498	-0.294861	-0.006195
0.011455	-0.286736	-0.295027	0.011455
0.000482	-0.280731	-0.283771	0.000482
-0.016155	-0.269039	-0.255430	-0.016155
-0.038434	-0.291655	-0.250046	-0.038434
-0.043489	-0.319888	-0.273235	-0.043489
-0.037102	-0.336583	-0.296330	-0.037102
-0.030740	-0.301815	-0.273646	-0.030740
-0.012981	-0.295739	-0.285317	-0.012981
0.016126	-0.272556	-0.291230	0.016126
0.027983	-0.260887	-0.285697	0.027983
0.016952	-0.254976	-0.268766	0.016952
0.005966	-0.260508	-0.269035	0.005966
-0.004974	-0.340250	-0.332115	-0.004974
-0.027289	-0.339720	-0.314993	-0.027289
-0.032380	-0.304928	-0.269388	-0.032380
-0.026028	-0.281697	-0.252521	-0.026028
-0.002571	-0.287112	-0.287116	-0.002571
0.009371	-0.269663	-0.275886	0.009371
0.004134	-0.246573	-0.253281	0.004134
-0.023923	-0.303521	-0.282161	-0.023923
-0.023311	-0.337393	-0.316633	-0.023311
-0.005570	-0.325442	-0.316702	-0.005570
0.029230	-0.284987	-0.316769	0.029230
0.018205	-0.244696	-0.259732	0.018205
0.012937	-0.210280	-0.220059	0.012937
0.024822	-0.238817	-0.260493	0.024822
0.013818	-0.250105	-0.266500	0.013818
-0.014271	-0.249925	-0.238220	-0.014271
-0.013692	-0.266876	-0.250027	-0.013692
-0.018825	-0.329439	-0.307469	-0.018825
-0.012516	-0.317510	-0.301861	-0.012516
-0.000521	-0.271366	-0.273435	-0.000521
0.028557	-0.271092	-0.296517	0.028557
0.040385	-0.265108	-0.302373	0.040385
0.040745	-0.236306	-0.279653	0.040745
0.018263	-0.298986	-0.319839	0.018263
-0.004126	-0.355697	-0.354150	-0.004126
-0.009292	-0.326519	-0.319795	-0.009292
0.002695	-0.251777	-0.257028	0.002695
0.014634	-0.245863	-0.263042	0.014634
0.015104	-0.308497	-0.326134	0.015104
0.015573	-0.308058	-0.320444	0.015573
0.010331	-0.256228	-0.263382	0.010331
0.005111	-0.273132	-0.280789	0.005111
0.005624	-0.289965	-0.298123	0.005624
0.006135	-0.283887	-0.286835	0.006135
0.000935	-0.289253	-0.287012	0.000935
0.012888	-0.283174	-0.298609	0.012888
0.013372	-0.282830	-0.298738	0.013372
0.030986	-0.236803	-0.270313	0.030986
0.037107	-0.253777	-0.287688	0.037107
0.026074	-0.304943	-0.327831	0.026074
0.009376	-0.304504	-0.310707	0.009376
-0.007253	-0.275514	-0.265100	-0.007253
-0.012392	-0.275193	-0.259651	-0.012392
-0.006089	-0.309133	-0.299908	-0.006089
-0.011231	-0.354354	-0.339998	-0.011231
0.006491	-0.347995	-0.357083	0.006491
0.024140	-0.273136	-0.294151	0.024140
0.024587	-0.227133	-0.254319	0.024587
0.013613	-0.244132	-0.254621	0.013613
0.002684	-0.289612	-0.294894	0.002684
0.003221	-0.294931	-0.300739	0.003221
0.009468	-0.305938	-0.317981	0.009468
0.009979	-0.299767	-0.306599	0.009979
0.021910	-0.253647	-0.278133	0.021910
0.028082	-0.213425	-0.244072	0.028082
0.022809	-0.287574	-0.307226	0.022809
0.028979	-0.321445	-0.347279	0.028979
0.017994	-0.315203	-0.335774	0.017994
0.012764	-0.343248	-0.352867	0.012764
0.024688	-0.314072	-0.335627	0.024688
0.025143	-0.267883	-0.289905	0.025143
0.025597	-0.278985	-0.301473	0.025597
0.020339	-0.307171	-0.330123	0.020339
0.026524	-0.278137	-0.301553	0.026524
0.015554	-0.266351	-0.278808	0.015554
-0.006791	-0.283164	-0.278998	-0.006791
0.005218	-0.351299	-0.353421	0.005218
0.017179	-0.384891	-0.398986	0.017179
0.017671	-0.315558	-0.330156	0.017671
0.001031	-0.240796	-0.238766	0.001031
0.018721	-0.223443	-0.239116	0.018721
0.036341	-0.280394	-0.319408	0.036341
0.048178	-0.325689	-0.370819	0.048178
0.031415	-0.353667	-0.387756	0.031415
0.003302	-0.313003	-0.318967	0.003302
-0.007565	-0.306767	-0.301852	-0.007565
0.004455	-0.294844	-0.301938	0.004455
0.016427	-0.311520	-0.324864	0.016427
0.022640	-0.310994	-0.330563	0.022640
0.023118	-0.247656	-0.267715	0.023118
0.029306	-0.247389	-0.279358	0.029306
0.029758	-0.275674	-0.302373	0.029758
0.013078	-0.258159	-0.268190	0.013078
0.019309	-0.274977	-0.291250	0.019309
0.019804	-0.286013	-0.308504	0.019804
0.037429	-0.285583	-0.319977	0.037429
0.043562	-0.319414	-0.359953	0.043562
0.021119	-0.313133	-0.336951	0.021119
0.021610	-0.272614	-0.291200	0.021610
0.004968	-0.215128	-0.217085	0.004968
-0.023025	-0.277794	-0.257480	-0.023025
-0.010930	-0.334491	-0.326260	-0.010930
0.006827	-0.322430	-0.326234	0.006827
0.030222	-0.298996	-0.331917	0.030222
0.053522	-0.332759	-0.383258	0.053522
0.036755	-0.337831	-0.377285	0.036755
0.042899	-0.308618	-0.348493	0.042899
0.031886	-0.308074	-0.336949	0.031886
0.009500	-0.341793	-0.348293	0.009500
-0.001374	-0.312558	-0.313906	-0.001374
-0.000782	-0.311992	-0.313921	-0.000782
-0.000191	-0.277165	-0.273963	-0.000191
0.000398	-0.271031	-0.268430	0.000398
0.023827	-0.247790	-0.268630	0.023827
0.041451	-0.316008	-0.360193	0.041451
0.053293	-0.361102	-0.411407	0.053293
0.030824	-0.354618	-0.382466	0.030824
-0.002972	-0.348157	-0.342221	-0.002972
0.003344	-0.336011	-0.336402	0.003344
0.021055	-0.295361	-0.313474	0.021055
0.021563	-0.277716	-0.296350	0.021563
0.027780	-0.254433	-0.285005	0.027780
0.028263	-0.196981	-0.228024	0.028263
0.034454	-0.213998	-0.251221	0.034454
0.034910	-0.276627	-0.308583	0.034910
0.006814	-0.316156	-0.325738	0.006814
-0.009746	-0.326970	-0.319980	-0.009746
0.008024	-0.309186	-0.314245	0.008024
0.008592	-0.314314	-0.319953	0.008592
0.014869	-0.302289	-0.314216	0.014869
0.026831	-0.335993	-0.365605	0.026831
0.027325	-0.318165	-0.342547	0.027325
0.016396	-0.231884	-0.245349	0.016396
0.011223	-0.231610	-0.239914	0.011223
0.000362	-0.248467	-0.245921	0.000362
0.000967	-0.248122	-0.251903	0.000967
0.018701	-0.253488	-0.274992	0.018701
0.042074	-0.247410	-0.292274	0.042074
0.036800	-0.189962	-0.223831	0.036800
0.031549	-0.201273	-0.229901	0.031549
0.043450	-0.195405	-0.235947	0.043450
0.038172	-0.218113	-0.259098	0.038172
0.044338	-0.246436	-0.287865	0.044338
0.056188	-0.246090	-0.305092	0.056188
0.050860	-0.240035	-0.287986	0.050860
0.056975	-0.239713	-0.293790	0.056975
0.074486	-0.256522	-0.328122	0.074486
0.074794	-0.244709	-0.316629	0.074794
0.063681	-0.267205	-0.333734	0.063681
0.075455	-0.243925	-0.322216	0.075455
0.087181	-0.232160	-0.322164	0.087181
0.104570	-0.248993	-0.350664	0.104570
0.070495	-0.277176	-0.344783	0.070495
0.042269	-0.333794	-0.373188	0.042269
0.037002	-0.321654	-0.361502	0.037002
0.066018	-0.303852	-0.372704	0.066018
0.077785	-0.286121	-0.366728	0.077785
0.089504	-0.257039	-0.349354	0.089504
0.066913	-0.268048	-0.337760	0.066913
0.027285	-0.296141	-0.326212	0.027285
0.022081	-0.284145	-0.303290	0.022081
0.022610	-0.277907	-0.303303	0.022610
0.040268	-0.265982	-0.303314	0.040268
0.040723	-0.276946	-0.320455	0.040723
0.041177	-0.247891	-0.291843	0.041177
0.041630	-0.224664	-0.269057	0.041630
0.019241	-0.270055	-0.292046	0.019241
-0.008767	-0.298127	-0.292099	-0.008767
-0.008107	-0.320373	-0.309282	-0.008107
0.009682	-0.359655	-0.372076	0.009682
0.015979	-0.370224	-0.383219	0.015979
0.016540	-0.335063	-0.354342	0.016540
0.028520	-0.317176	-0.342713	0.028520
0.034742	-0.305070	-0.336840	0.034742
0.035228	-0.344405	-0.376673	0.035228
0.012872	-0.377866	-0.393500	0.012872
0.002029	-0.348374	-0.347443	0.002029
-0.003058	-0.330421	-0.330124	-0.003058
0.014717	-0.323960	-0.335717	0.014717
0.026711	-0.323234	-0.352706	0.026711
0.021524	-0.311088	-0.329652	0.021524
0.010650	-0.321831	-0.329533	0.010650
0.028373	-0.309687	-0.340833	0.028373
0.040313	-0.280460	-0.323534	0.040313
0.029364	-0.302743	-0.334857	0.029364
0.029881	-0.336354	-0.368973	0.029881
0.024686	-0.312722	-0.334424	0.024686
0.013803	-0.283474	-0.300015	0.013803
0.031517	-0.248634	-0.282877	0.031517
0.049159	-0.248198	-0.294360	0.049159
0.066729	-0.304864	-0.368609	0.066729
0.089938	-0.349876	-0.436842	0.089938
0.078791	-0.366150	-0.447690	0.078791
0.061979	-0.359513	-0.418519	0.061979
0.073787	-0.307218	-0.378044	0.073787
0.114100	-0.215164	-0.326314	0.114100
0.137116	-0.129195	-0.269084	0.137116
0.171458	-0.037868	-0.206377	0.171458
0.239921	0.104477	-0.138216	0.239921
0.285261	0.269079	-0.013232	0.285261
0.318994	0.421584	0.105528	0.318994
0.324035	0.550618	0.229510	0.324035
0.340474	0.661988	0.318719	0.340474
0.379685	0.744344	0.361875	0.379685
0.401602	0.889168	0.484795	0.401602
0.406296	1.061944	0.652888	0.406296
0.370996	1.159767	0.786023	0.370996
0.330128	1.274311	0.941446	0.330128
0.295137	1.416926	1.124775	0.295137
0.226024	1.410475	1.181714	0.226024
0.162905	1.227019	1.067100	0.162905
0.060071	1.032883	0.970075	0.060071
-0.036631	0.805271	0.844887	-0.036631
-0.132935	0.618555	0.748754	-0.132935
-0.257395	0.409758	0.670138	-0.257395
-0.347079	0.230363	0.580416	-0.347079
-0.430683	0.131644	0.559579	-0.430683
-0.451125	0.079011	0.533110	-0.451125
-0.391535	0.049433	0.438220	-0.391535
-0.332185	-0.008576	0.320873	-0.332185
-0.250233	-0.089190	0.158319	-0.250233
-0.168614	-0.163763	0.007848	-0.168614
-0.081616	-0.146665	-0.067774	-0.081616
-0.006394	-0.095375	-0.085984	-0.006394
0.011418	-0.032874	-0.041307	0.011418
0.000607	-0.044864	-0.048207	0.000607
-0.004449	-0.165300	-0.163576	-0.004449
0.019068	-0.211009	-0.227080	0.019068
0.053910	-0.222268	-0.278903	0.053910
0.065769	-0.227769	-0.290540	0.065769
0.066159	-0.221826	-0.290709	0.066159
0.083678	-0.215906	-0.296587	0.083678
0.101126	-0.227140	-0.325281	0.101126
0.084241	-0.204064	-0.291042	0.084241
0.073136	-0.209635	-0.279785	0.073136
0.084917	-0.306546	-0.388489	0.084917
0.090941	-0.266011	-0.353989	0.090941
0.085519	-0.197088	-0.279657	0.085519
0.080119	-0.276916	-0.354096	0.080119
0.091873	-0.310732	-0.405388	0.091873
0.126420	-0.247332	-0.376524	0.126420
0.120854	-0.218453	-0.342066	0.120854
0.086758	-0.286766	-0.370562	0.086758
0.092775	-0.286274	-0.381808	0.092775
0.104477	-0.285782	-0.387296	0.104477
0.121842	-0.279580	-0.398471	0.121842
0.133425	-0.256271	-0.386757	0.133425
0.122119	-0.250187	-0.369379	0.122119
0.127991	-0.238416	-0.363491	0.127991
0.139548	-0.209561	-0.351915	0.139548
0.116796	-0.266478	-0.386068	0.116796
0.105558	-0.277477	-0.385818	0.105558
0.105787	-0.248458	-0.351305	0.105787
0.128856	-0.225267	-0.351194	0.128856
0.134699	-0.219300	-0.356793	0.134699
0.123387	-0.236198	-0.356657	0.123387
0.123542	-0.247314	-0.373651	0.123542
0.152248	-0.246964	-0.396284	0.152248
0.146574	-0.212351	-0.361719	0.146574
0.129503	-0.217852	-0.344426	0.129503
0.118211	-0.251880	-0.372884	0.118211
0.129807	-0.268636	-0.395515	0.129807
0.147066	-0.245350	-0.395209	0.147066
0.158543	-0.176475	-0.332089	0.158543
0.158552	-0.176406	-0.337751	0.158552
0.175692	-0.216308	-0.394781	0.175692
0.164209	-0.278887	-0.440155	0.164209
0.135642	-0.261263	-0.399686	0.135642
0.124323	-0.255131	-0.376512	0.124323
0.130180	-0.237601	-0.370563	0.130180
0.147435	-0.191591	-0.336084	0.147435
0.164618	-0.174319	-0.336008	0.164618
0.164599	-0.242773	-0.404454	0.164599
0.164580	-0.248131	-0.409804	0.164580
0.175982	-0.190652	-0.363738	0.175982
0.170205	-0.161959	-0.329280	0.170205
0.147320	-0.161934	-0.312093	0.147320
0.147370	-0.173330	-0.323526	0.147370
0.158840	-0.184678	-0.346332	0.158840
0.170262	-0.195978	-0.369043	0.170262
0.187348	-0.207231	-0.391660	0.187348
0.198652	-0.252699	-0.448444	0.198652
0.187068	-0.286559	-0.476441	0.187068
0.164111	-0.263175	-0.430088	0.164111
0.158378	-0.228464	-0.383922	0.158378
0.169798	-0.182474	-0.355074	0.169798
0.169751	-0.193774	-0.360605	0.169751
0.169704	-0.239289	-0.406084	0.169704
0.175366	-0.261775	-0.434244	0.175366
0.175295	-0.261326	-0.433735	0.175295
0.186643	-0.232325	-0.416095	0.186643
0.186524	-0.220573	-0.409945	0.186524
0.192115	-0.186026	-0.380978	0.192115
0.191972	-0.197303	-0.386389	0.191972
0.180409	-0.197112	-0.380356	0.180409
0.197443	-0.174079	-0.368636	0.197443
0.208697	-0.173981	-0.379803	0.208697
0.202773	-0.179592	-0.385212	0.202773
0.219713	-0.156628	-0.379177	0.219713
0.219452	-0.156599	-0.373164	0.219452
0.202060	-0.162280	-0.361465	0.202060
0.184739	-0.173646	-0.361232	0.184739
0.196040	-0.190676	-0.383840	0.196040
0.207293	-0.201925	-0.412064	0.207293
0.229920	-0.184574	-0.411618	0.229920
0.235323	-0.144453	-0.382621	0.235323
0.257833	-0.155888	-0.416554	0.257833
0.274539	-0.127303	-0.398954	0.274539
0.262624	-0.138808	-0.398554	0.262624
0.233625	-0.144554	-0.381024	0.233625
0.221875	-0.173117	-0.397825	0.221875
0.221593	-0.218693	-0.437396	0.221593
0.238441	-0.235530	-0.471093	0.238441
0.255220	-0.200903	-0.458967	0.255220
0.266218	-0.172128	-0.441178	0.266218
0.254328	-0.177731	-0.434880	0.254328
0.242486	-0.166180	-0.405764	0.242486
0.224981	-0.166096	-0.388186	0.224981
0.218967	-0.183142	-0.404941	0.218967
0.235818	-0.188696	-0.427334	0.235818
0.252599	-0.205648	-0.461055	0.252599
0.263600	-0.182556	-0.443242	0.263600
0.234581	-0.159559	-0.396948	0.234581
0.239943	-0.119524	-0.356552	0.239943
0.245281	-0.136755	-0.384843	0.245281
0.233465	-0.176757	-0.413017	0.233465
0.204566	-0.193752	-0.401101	0.204566
0.187204	-0.222097	-0.406363	0.187204
0.198465	-0.181801	-0.383050	0.198465
0.209678	-0.135959	-0.348410	0.209678
0.192294	-0.193090	-0.388144	0.192294
0.174979	-0.238565	-0.416292	0.174979
0.186286	-0.186777	-0.375800	0.186286
0.186126	-0.186593	-0.375444	0.186126
0.157414	-0.214960	-0.375087	0.157414
0.123109	-0.220368	-0.340468	0.123109
0.100364	-0.220043	-0.323120	0.100364
0.100554	-0.208297	-0.311553	0.100554
0.106454	-0.208018	-0.311452	0.106454
0.123749	-0.173478	-0.294219	0.123749
0.123843	-0.167630	-0.294187	0.123843
0.112516	-0.161804	-0.277022	0.112516
0.095524	-0.230236	-0.322740	0.095524
0.067182	-0.309807	-0.373980	0.067182
0.061797	-0.252002	-0.310802	0.061797
0.067855	-0.217273	-0.282144	0.067855
0.068178	-0.279761	-0.344966	0.068178
0.068500	-0.313440	-0.378978	0.068500
0.068820	-0.272744	-0.344325	0.068820
0.063430	-0.255054	-0.321233	0.063430
0.035220	-0.277408	-0.309655	0.035220
0.007127	-0.293957	-0.298123	0.007127
0.007701	-0.310437	-0.315189	0.007701
0.025404	-0.286875	-0.309342	0.025404
0.043035	-0.269118	-0.309228	0.043035
0.043464	-0.274274	-0.314823	0.043464
0.038181	-0.262275	-0.297553	0.038181
0.044341	-0.233193	-0.274642	0.044341
0.027634	-0.261331	-0.286086	0.027634
0.022417	-0.283642	-0.308902	0.022417
0.028643	-0.311571	-0.337334	0.028643
0.029134	-0.276569	-0.308545	0.029134
0.041043	-0.241709	-0.285582	0.041043
0.041484	-0.241252	-0.285554	0.041484
0.030503	-0.252215	-0.285525	0.030503
0.025277	-0.268843	-0.291205	0.025277
0.020074	-0.262559	-0.285440	0.020074
0.026313	-0.222038	-0.251145	0.026313
0.009686	-0.238784	-0.251253	0.009686
0.021679	-0.261170	-0.285620	0.021679
0.033624	-0.294884	-0.325557	0.033624
0.028389	-0.288485	-0.319645	0.028389
0.011756	-0.264979	-0.279495	0.011756
0.023743	-0.264410	-0.290900	0.023743
0.018551	-0.286682	-0.307968	0.018551
0.013380	-0.263178	-0.279282	0.013380
0.019652	-0.274031	-0.296395	0.019652
0.025899	-0.284837	-0.313437	0.025899
0.032121	-0.249914	-0.284725	0.032121
0.038318	-0.260816	-0.301812	0.038318
0.038780	-0.260250	-0.301696	0.038780
0.050661	-0.236844	-0.284449	0.050661
0.056783	-0.224952	-0.278692	0.056783
0.040040	-0.235950	-0.278668	0.040040
0.029075	-0.229769	-0.261511	0.029075
0.012446	-0.246454	-0.261555	0.012446
0.018727	-0.280199	-0.301570	0.018727
0.036404	-0.302384	-0.335709	0.036404
0.065429	-0.284503	-0.352576	0.065429
0.065784	-0.260984	-0.323690	0.065784
0.060427	-0.266110	-0.329182	0.060427
0.060803	-0.242662	-0.300388	0.060803
0.038336	-0.230729	-0.266000	0.038336
0.021672	-0.230264	-0.248884	0.021672
0.016498	-0.235510	-0.248967	0.016498
0.022766	-0.269284	-0.289021	0.022766
0.017589	-0.251525	-0.271807	0.017589
0.029564	-0.228127	-0.260372	0.029564
0.052911	-0.187692	-0.243273	0.052911
0.070453	-0.170263	-0.243374	0.070453
0.059372	-0.147194	-0.203502	0.059372
0.025495	-0.221294	-0.249447	0.025495
0.026019	-0.323640	-0.352306	0.026019
0.055093	-0.305648	-0.363377	0.055093
0.066917	-0.213494	-0.283036	0.066917
0.055852	-0.207370	-0.265835	0.055852
0.056254	-0.218401	-0.271546	0.056254
0.039523	-0.246516	-0.288653	0.039523
0.051412	-0.245963	-0.294267	0.051412
0.057543	-0.211149	-0.265596	0.057543
0.029387	-0.193606	-0.225620	0.029387
0.018478	-0.227527	-0.242910	0.018478
0.036166	-0.272728	-0.305811	0.036166
0.048072	-0.272060	-0.317060	0.048072
0.042798	-0.254261	-0.299710	0.042798
0.031836	-0.247954	-0.282429	0.031836
0.043761	-0.241671	-0.288060	0.043761
0.044216	-0.229702	-0.270824	0.044216
0.016119	-0.257753	-0.270789	0.016119
0.016689	-0.262845	-0.276464	0.016689
0.028678	-0.256494	-0.287824	0.028678
0.052039	-0.210195	-0.264874	0.052039
0.058173	-0.198346	-0.253438	0.058173
0.058573	-0.226517	-0.287731	0.058573
0.076102	-0.180336	-0.259068	0.076102
0.065008	-0.157185	-0.224811	0.065008
0.053959	-0.162679	-0.213535	0.053959
0.031536	-0.225252	-0.253697	0.031536
0.032046	-0.298989	-0.327955	0.032046
0.055396	-0.258215	-0.310543	0.055396
0.055809	-0.229026	-0.281780	0.055809
0.039090	-0.268479	-0.304526	0.039090
0.056701	-0.239245	-0.292915	0.056701
0.057110	-0.215840	-0.269931	0.057110
0.034677	-0.232501	-0.264170	0.034677
0.018046	-0.271933	-0.286983	0.018046
0.012904	-0.294070	-0.309701	0.012904
0.013494	-0.287564	-0.298063	0.013494
0.025504	-0.252530	-0.275050	0.025504
0.048885	-0.229058	-0.280682	0.048885
0.060750	-0.257074	-0.320551	0.060750
0.066857	-0.239291	-0.303153	0.066857
0.055808	-0.187317	-0.245852	0.055808
0.033384	-0.204078	-0.234467	0.033384
0.033893	-0.232190	-0.268810	0.033893
0.045822	-0.248764	-0.297301	0.045822
0.051992	-0.242427	-0.291413	0.051992
0.052426	-0.196142	-0.245574	0.052426
0.058569	-0.195728	-0.251315	0.058569
0.047557	-0.223866	-0.274163	0.047557
0.065142	-0.217625	-0.285495	0.065142
0.059813	-0.205698	-0.268228	0.059813
0.037376	-0.193818	-0.228188	0.037376
0.026452	-0.216248	-0.239705	0.026452
0.026993	-0.261425	-0.285436	0.026993
0.038954	-0.232181	-0.268164	0.038954
0.039445	-0.225896	-0.268093	0.039445
0.039935	-0.253897	-0.296573	0.039935
0.046134	-0.281782	-0.324934	0.046134
0.040887	-0.286709	-0.324626	0.040887
0.035662	-0.268772	-0.307186	0.035662
0.053300	-0.245197	-0.295527	0.053300
0.053735	-0.227426	-0.283914	0.053735
0.059879	-0.209727	-0.266637	0.059879
0.065998	-0.203519	-0.272270	0.065998
0.060672	-0.208756	-0.272169	0.060672
0.066789	-0.168288	-0.237805	0.066789
0.055749	-0.127984	-0.186450	0.055749
0.039045	-0.196340	-0.238091	0.039045
0.028120	-0.230152	-0.255257	0.028120
0.028661	-0.166750	-0.192407	0.028661
0.046331	-0.166419	-0.215468	0.046331
0.052509	-0.251743	-0.301248	0.052509
0.052951	-0.285323	-0.335282	0.052951
0.047682	-0.261659	-0.312072	0.047682
0.036724	-0.243802	-0.283244	0.036724
0.031522	-0.231725	-0.265954	0.031522
0.037762	-0.236828	-0.277285	0.037762
0.066819	-0.219066	-0.282858	0.066819
0.061494	-0.189955	-0.248435	0.061494
0.021930	-0.252327	-0.271254	0.021930
0.033922	-0.263048	-0.293979	0.033922
0.074416	-0.222331	-0.293768	0.074416
0.069062	-0.198909	-0.265005	0.069062
0.046600	-0.226975	-0.270620	0.046600
0.041360	-0.214953	-0.253369	0.041360
0.007591	-0.220108	-0.230478	0.007591
0.031064	-0.219531	-0.247652	0.031064
0.031601	-0.236085	-0.270464	0.031601
0.043556	-0.189756	-0.241789	0.043556
0.066883	-0.212139	-0.276044	0.066883
0.050143	-0.217298	-0.270184	0.050143
0.022051	-0.188172	-0.212955	0.022051
0.022626	-0.204847	-0.224483	0.022626
0.028910	-0.221452	-0.253094	0.028910
0.040879	-0.215145	-0.253034	0.040879
0.041378	-0.186022	-0.230133	0.041378
0.047587	-0.174147	-0.218745	0.047587
0.070901	-0.190872	-0.264505	0.070901
0.082699	-0.201816	-0.281526	0.082699
0.048767	-0.212713	-0.264213	0.048767
0.020684	-0.206434	-0.229839	0.020684
0.038399	-0.205889	-0.241288	0.038399
0.061753	-0.182503	-0.246978	0.061753
0.073590	-0.159212	-0.235512	0.073590
0.068249	-0.124594	-0.189831	0.068249
0.080060	-0.101538	-0.178598	0.080060
0.086113	-0.112837	-0.195961	0.086113
0.075009	-0.112668	-0.184702	0.075009
0.052531	-0.072528	-0.127805	0.052531
0.041566	-0.112495	-0.156796	0.041566
0.042067	-0.083775	-0.128565	0.042067
0.053987	-0.078012	-0.134711	0.053987
0.060148	-0.123666	-0.186514	0.060148
0.100546	-0.106318	-0.209552	0.100546
0.135069	-0.049068	-0.186813	0.135069
0.135187	-0.083417	-0.215559	0.135187
0.101043	-0.146177	-0.244186	0.101043
0.078459	-0.157286	-0.238434	0.078459
0.084519	-0.122665	-0.204151	0.084519
0.084845	-0.122447	-0.204271	0.084845
0.108010	-0.156491	-0.267202	0.108010
0.125370	-0.133292	-0.255641	0.125370
0.142658	-0.138737	-0.278387	0.142658
0.142744	-0.149870	-0.289618	0.142744
0.097147	-0.195218	-0.295091	0.097147
0.068868	-0.188986	-0.254857	0.068868
0.069256	-0.165647	-0.231918	0.069256
0.075353	-0.188084	-0.260465	0.075353
0.098557	-0.164746	-0.260342	0.098557
0.098823	-0.152923	-0.248797	0.098823
0.093379	-0.135437	-0.231588	0.093379
0.087956	-0.123731	-0.214449	0.087956
0.099687	-0.146335	-0.248771	0.099687
0.082818	-0.168844	-0.254401	0.082818
0.054598	-0.179840	-0.231454	0.054598
0.060755	-0.156527	-0.214310	0.060755
0.061177	-0.178991	-0.237208	0.061177
0.055888	-0.207072	-0.260011	0.055888
0.067751	-0.206484	-0.277009	0.067751
0.085276	-0.177346	-0.265384	0.085276
0.079888	-0.211139	-0.293777	0.079888
0.057391	-0.244792	-0.304922	0.057391
0.052118	-0.198361	-0.247495	0.052118
0.058287	-0.146408	-0.201723	0.058287
0.064431	-0.106087	-0.173269	0.064431
0.064840	-0.174426	-0.236296	0.064840
0.065248	-0.213933	-0.276222	0.065248
0.077074	-0.207594	-0.287431	0.077074
0.083142	-0.224120	-0.304303	0.083142
0.083475	-0.183473	-0.264001	0.083475
0.072386	-0.125861	-0.201021	0.072386
0.055632	-0.142717	-0.201113	0.055632
0.067499	-0.193766	-0.264016	0.067499
0.073606	-0.210341	-0.280977	0.073606
0.073979	-0.175455	-0.252185	0.073979
0.085771	-0.129289	-0.217800	0.085771
0.080384	-0.134704	-0.212105	0.080384
0.086439	-0.145806	-0.229275	0.086439
0.052497	-0.173992	-0.229242	0.052497
0.041536	-0.196351	-0.234918	0.041536
0.064883	-0.224327	-0.286252	0.064883
0.076713	-0.200794	-0.280271	0.076713
0.082784	-0.194487	-0.280023	0.082784
0.100251	-0.222466	-0.319747	0.100251
0.117647	-0.221776	-0.336466	0.117647
0.117840	-0.192536	-0.313141	0.117840
0.135163	-0.157704	-0.289910	0.135163
0.146704	-0.083042	-0.232511	0.146704
0.175329	0.002737	-0.169635	0.175329
0.232387	0.116715	-0.118437	0.232387
0.283500	0.224516	-0.061738	0.283500
0.351533	0.354714	0.006150	0.351533
0.396443	0.552899	0.153702	0.396443
0.429747	0.755978	0.323490	0.429747
0.445780	0.866854	0.418344	0.445780
0.427482	0.880194	0.449993	0.427482
0.414967	0.893471	0.475796	0.414967
0.408211	0.986630	0.575724	0.408211
0.384349	1.153634	0.766601	0.384349
0.349161	1.308523	0.956690	0.349161
0.308405	1.451346	1.140280	0.308405
0.262104	1.450814	1.186061	0.262104
0.187439	1.313224	1.123147	0.187439
0.084527	1.079111	0.991957	0.084527
-0.017962	0.903051	0.918398	-0.017962
-0.120032	0.613498	0.736636	-0.120032
-0.233102	0.370809	0.601294	-0.233102
-0.362837	0.249027	0.609259	-0.362837
-0.457775	0.201976	0.657157	-0.457775
-0.438113	0.195087	0.636329	-0.438113
-0.367135	0.136833	0.501373	-0.367135
-0.307864	0.061684	0.366965	-0.307864
-0.254543	0.003974	0.255945	-0.254543
-0.172886	0.009313	0.179639	-0.172886
-0.091562	-0.008211	0.080802	-0.091562
-0.044831	-0.031373	0.010919	-0.044831
0.007420	-0.025889	-0.030127	0.007420
0.036617	-0.026138	-0.065295	0.036617
0.071404	-0.026386	-0.100319	0.071404
0.094629	-0.043764	-0.135199	0.094629
0.077786	-0.101042	-0.175647	0.077786
0.072433	-0.118113	-0.193088	0.072433
0.072812	-0.112272	-0.187615	0.072812
0.078900	-0.117875	-0.199294	0.078900
0.090674	-0.129164	-0.216636	0.090674
0.119530	-0.157537	-0.273877	0.119530
0.131136	-0.128690	-0.262359	0.131136
0.131275	-0.128511	-0.256597	0.131275
0.097150	-0.168305	-0.262278	0.097150
0.086006	-0.173672	-0.256514	0.086006
0.103460	-0.173306	-0.273614	0.103460
0.126552	-0.144388	-0.267800	0.126552
0.132418	-0.149850	-0.279140	0.132418
0.132549	-0.189550	-0.318984	0.132549
0.138390	-0.171982	-0.307270	0.138390
0.144207	-0.154486	-0.295602	0.144207
0.138578	-0.154191	-0.295400	0.138578
0.127262	-0.153896	-0.283778	0.127262
0.138833	-0.107918	-0.243650	0.138833
0.156066	-0.107811	-0.260788	0.156066
0.144677	-0.130544	-0.272144	0.144677
0.133334	-0.147474	-0.277742	0.133334
0.144878	-0.158622	-0.300447	0.144878
0.144954	-0.146882	-0.288795	0.144954
0.127897	-0.118059	-0.248638	0.127897
0.128042	-0.146455	-0.271457	0.128042
0.122475	-0.186155	-0.305602	0.122475
0.116930	-0.202850	-0.322474	0.116930
0.151380	-0.190923	-0.339276	0.151380
0.168558	-0.139071	-0.310324	0.168558
0.191375	-0.104562	-0.298620	0.191375
0.202676	-0.104455	-0.304093	0.202676
0.185379	-0.127189	-0.315252	0.185379
0.162442	-0.144119	-0.303522	0.162442
0.139597	-0.143847	-0.280418	0.139597
0.162529	-0.080762	-0.240276	0.162529
0.185365	-0.029355	-0.211718	0.185365
0.179556	-0.046682	-0.223248	0.179556
0.156639	-0.086780	-0.246151	0.156639
0.162366	-0.075320	-0.240407	0.162366
0.173780	-0.115299	-0.291788	0.173780
0.168015	-0.126562	-0.291564	0.168015
0.150853	-0.177750	-0.331312	0.150853
0.162311	-0.217306	-0.382316	0.162311
0.173723	-0.171044	-0.347453	0.173723
0.185086	-0.090708	-0.278469	0.185086
0.196402	-0.113486	-0.312552	0.196402
0.201961	-0.090488	-0.295101	0.201961
0.201785	-0.107555	-0.306271	0.201785
0.195899	-0.135972	-0.334524	0.195899
0.195746	-0.158562	-0.351239	0.195746
0.184172	-0.175347	-0.356463	0.184172
0.189776	-0.134960	-0.321691	0.189776
0.223907	-0.089026	-0.315611	0.223907
0.229346	-0.077541	-0.303843	0.229346
0.229050	-0.077524	-0.303543	0.229050
0.223045	-0.060375	-0.286111	0.223045
0.222773	-0.020455	-0.240197	0.222773
0.211080	-0.026381	-0.234442	0.211080
0.205145	-0.032283	-0.240130	0.205145
0.233494	-0.038160	-0.268635	0.233494
0.238885	-0.055433	-0.291311	0.238885
0.238542	-0.061215	-0.302472	0.238542
0.232489	-0.084103	-0.313586	0.232489
0.215038	-0.072635	-0.290390	0.215038
0.220500	-0.072635	-0.295839	0.220500
0.231647	-0.158288	-0.392629	0.231647
0.225617	-0.146514	-0.374813	0.225617
0.236742	-0.123367	-0.357068	0.236742
0.253529	-0.071762	-0.322263	0.253529
0.258826	-0.043209	-0.304729	0.258826
0.246969	-0.077586	-0.327237	0.246969
0.263710	-0.066139	-0.326810	0.263710
0.297512	-0.026187	-0.326382	0.297512
0.302622	-0.009240	-0.314534	0.302622
0.290578	-0.009493	-0.302732	0.290578
0.278582	-0.061138	-0.336659	0.278582
0.300895	-0.095440	-0.393286	0.300895
0.311694	-0.101049	-0.415417	0.311694
0.299606	-0.078083	-0.374640	0.299606
0.298985	-0.032369	-0.328318	0.298985
0.292655	-0.032525	-0.322156	0.292655
0.269219	-0.032680	-0.304597	0.269219
0.257297	-0.072806	-0.327079	0.257297
0.273974	-0.072795	-0.349468	0.273974
0.262029	-0.061363	-0.326079	0.262029
0.267262	-0.101371	-0.371309	0.267262
0.301024	-0.066979	-0.370668	0.301024
0.317515	0.001534	-0.318634	0.317515
0.322516	-0.038730	-0.363887	0.322516
0.327494	-0.073118	-0.403242	0.327494
0.309608	-0.055972	-0.362488	0.309608
0.286083	-0.033185	-0.316189	0.286083
0.279783	-0.010492	-0.292919	0.279783
0.279218	-0.010733	-0.292583	0.279218
0.278653	-0.056655	-0.337929	0.278653
0.300930	-0.096679	-0.394508	0.300930
0.300273	-0.085145	-0.388039	0.300273
0.276775	-0.016554	-0.295939	0.276775
0.253371	-0.028189	-0.278448	0.253371
0.241482	-0.045486	-0.289580	0.241482
0.241061	-0.079843	-0.323504	0.241061
0.252061	-0.085507	-0.334447	0.252061
0.234463	-0.079727	-0.316791	0.234463
0.222646	-0.091100	-0.316336	0.222646
0.228007	-0.073875	-0.304460	0.228007
0.216213	-0.073851	-0.292631	0.216213
0.198756	-0.056695	-0.258007	0.198756
0.187080	-0.051030	-0.234944	0.187080
0.164030	-0.079649	-0.246236	0.164030
0.163915	-0.096730	-0.257481	0.163915
0.163799	-0.079478	-0.245836	0.163799
0.152262	-0.107979	-0.257079	0.152262
0.146482	-0.107811	-0.256853	0.146482
0.157856	-0.107643	-0.262337	0.157856
0.134921	-0.113184	-0.250667	0.134921
0.083528	-0.130123	-0.216201	0.083528
0.055186	-0.175543	-0.227557	0.055186
0.078353	-0.117990	-0.204604	0.078353
0.118556	-0.083513	-0.198874	0.118556
0.107200	-0.111990	-0.216009	0.107200
0.090181	-0.134639	-0.227361	0.090181
0.101783	-0.145773	-0.250086	0.101783
0.101916	-0.151151	-0.255586	0.101916
0.090628	-0.167925	-0.255351	0.090628
0.067965	-0.133237	-0.203722	0.067965
0.068236	-0.178635	-0.243669	0.068236
0.079926	-0.201003	-0.283451	0.079926
0.074438	-0.177596	-0.248834	0.074438
0.080392	-0.165704	-0.242908	0.080392
0.069191	-0.165280	-0.237006	0.069191
0.069456	-0.176276	-0.242547	0.069456
0.064010	-0.170096	-0.236642	0.064010
0.058586	-0.152518	-0.213630	0.058586
0.058895	-0.186405	-0.242104	0.058895
0.053492	-0.197309	-0.247618	0.053492
0.059531	-0.185326	-0.241687	0.059531
0.042705	-0.201942	-0.247199	0.042705
0.043079	-0.212778	-0.258398	0.043079
0.083424	-0.160755	-0.240998	0.083424
0.095051	-0.148915	-0.246509	0.095051
0.078079	-0.159964	-0.234864	0.078079
0.044046	-0.188098	-0.234686	0.044046
0.032993	-0.176142	-0.205957	0.032993
0.044827	-0.169944	-0.211605	0.044827
0.056613	-0.175191	-0.228650	0.056613
0.051219	-0.157573	-0.205651	0.051219
0.062978	-0.145737	-0.205586	0.062978
0.080400	-0.128237	-0.211231	0.080400
0.086329	-0.139360	-0.222561	0.086329
0.057972	-0.104753	-0.165320	0.057972
0.046862	-0.064577	-0.114023	0.046862
0.075770	-0.087379	-0.160011	0.075770
0.058877	-0.161479	-0.222940	0.058877
0.047763	-0.246695	-0.297031	0.047763
0.065247	-0.251615	-0.319424	0.065247
0.082658	-0.216541	-0.296040	0.082658
0.088578	-0.187319	-0.272750	0.088578
0.065921	-0.215318	-0.278105	0.065921
0.066199	-0.197518	-0.266305	0.066199
0.072185	-0.156948	-0.231711	0.072185
0.072437	-0.196488	-0.265780	0.072437
0.078398	-0.178760	-0.259736	0.078398
0.078624	-0.143973	-0.225164	0.078624
0.090269	-0.132168	-0.219283	0.090269
0.079025	-0.154672	-0.236266	0.079025
0.067827	-0.159952	-0.224626	0.067827
0.050964	-0.108106	-0.155930	0.050964
0.051302	-0.102154	-0.150327	0.051302
0.063059	-0.153328	-0.213270	0.063059
0.080477	-0.158609	-0.241692	0.080477
0.092114	-0.163866	-0.252866	0.092114
0.092283	-0.129129	-0.224019	0.092283
0.092450	-0.163056	-0.252393	0.092450
0.086906	-0.179713	-0.263517	0.086906
0.069964	-0.184878	-0.251753	0.069964
0.053091	-0.195732	-0.251456	0.053091
0.053418	-0.172277	-0.228317	0.053418
0.076585	-0.177468	-0.256664	0.076585
0.105368	-0.148375	-0.256342	0.105368
0.111191	-0.096558	-0.210337	0.111191
0.111279	-0.124897	-0.233043	0.111279
0.088525	-0.170250	-0.255654	0.088525
0.082995	-0.146892	-0.226778	0.082995
0.077487	-0.146469	-0.226570	0.077487
0.054871	-0.163178	-0.214941	0.054871
0.072319	-0.156976	-0.226200	0.072319
0.061145	-0.167928	-0.225990	0.061145
0.038595	-0.155993	-0.191518	0.038595
0.067531	-0.138396	-0.202868	0.067531
0.090638	-0.155131	-0.248432	0.090638
0.085098	-0.166085	-0.248126	0.085098
0.068160	-0.176993	-0.247818	0.068160
0.074133	-0.187855	-0.264642	0.074133
0.097212	-0.164409	-0.258553	0.097212
0.091644	-0.123927	-0.218226	0.091644
0.086099	-0.117871	-0.206614	0.086099
0.103418	-0.151811	-0.252151	0.103418
0.097824	-0.139929	-0.234686	0.097824
0.086542	-0.145224	-0.234422	0.086542
0.063886	-0.161917	-0.228448	0.063886
0.052743	-0.167120	-0.216786	0.052743
0.053066	-0.172300	-0.222301	0.053066
0.064808	-0.183167	-0.250633	0.064808
0.059372	-0.199699	-0.261717	0.059372
0.071088	-0.170478	-0.244202	0.071088
0.082756	-0.152797	-0.232467	0.082756
0.082956	-0.129476	-0.215068	0.082956
0.066024	-0.140511	-0.209160	0.066024
0.043450	-0.140079	-0.180433	0.043450
0.055231	-0.179620	-0.231767	0.055231
0.078385	-0.179025	-0.260048	0.078385
0.078602	-0.155589	-0.236818	0.078602
0.084528	-0.137959	-0.225103	0.084528
0.090430	-0.131820	-0.219144	0.090430
0.090596	-0.114284	-0.207498	0.090596
0.067921	-0.131081	-0.195898	0.067921
0.068180	-0.136387	-0.201475	0.068180
0.068437	-0.153091	-0.218448	0.068437
0.057272	-0.186856	-0.246771	0.057272
0.057574	-0.169088	-0.223584	0.057574
0.069296	-0.128550	-0.200489	0.069296
0.063838	-0.162412	-0.223171	0.063838
0.086954	-0.196132	-0.280020	0.086954
0.092844	-0.132638	-0.228138	0.092844
0.070158	-0.103664	-0.170757	0.070158
0.053275	-0.177594	-0.233526	0.053275
0.047881	-0.251219	-0.296036	0.047881
0.042510	-0.307409	-0.346868	0.042510
0.048582	-0.220609	-0.266151	0.048582
0.083180	-0.128452	-0.208604	0.083180
0.089085	-0.133746	-0.219815	0.089085
0.072124	-0.150438	-0.225269	0.072124
0.060943	-0.247005	-0.310643	0.060943
0.044096	-0.251808	-0.298589	0.044096
0.044450	-0.199487	-0.246611	0.044450
0.056224	-0.153089	-0.211974	0.056224
0.062238	-0.152561	-0.217450	0.062238
0.068228	-0.123483	-0.194351	0.068228
0.074193	-0.088813	-0.159924	0.074193
0.068713	-0.174200	-0.239843	0.068713
0.057545	-0.202132	-0.262330	0.057545
0.046423	-0.224238	-0.267592	0.046423
0.063898	-0.217700	-0.278540	0.063898
0.064170	-0.159793	-0.226629	0.064170
0.058730	-0.193488	-0.254872	0.058730
0.064734	-0.204201	-0.265867	0.064734
0.082133	-0.163476	-0.242553	0.082133
0.093750	-0.111495	-0.207913	0.093750
0.071058	-0.111119	-0.179123	0.071058
0.054169	-0.105033	-0.156159	0.054169
0.054479	-0.133233	-0.184682	0.054479
0.083340	-0.132764	-0.218797	0.083340
0.077821	-0.126586	-0.201377	0.077821
0.066614	-0.166114	-0.229710	0.066614
0.089714	-0.211189	-0.297898	0.089714
0.089878	-0.204684	-0.291570	0.089878
0.084331	-0.181074	-0.262424	0.084331
0.073096	-0.140427	-0.216264	0.073096
0.061906	-0.197021	-0.255947	0.061906
0.045052	-0.196278	-0.238362	0.045052
0.056819	-0.172695	-0.226558	0.056819
0.068538	-0.183468	-0.249062	0.068538
0.063077	-0.182775	-0.248631	0.063077
0.074769	-0.182084	-0.253910	0.074769
0.092124	-0.175683	-0.270586	0.092124
0.086566	-0.163596	-0.252929	0.086566
0.058189	-0.157267	-0.218212	0.058189
0.052770	-0.162384	-0.217898	0.052770
0.064504	-0.167478	-0.234714	0.064504
0.059058	-0.166839	-0.222908	0.059058
0.059345	-0.149070	-0.211149	0.059345
0.065341	-0.108531	-0.170884	0.065341
0.071313	-0.068157	-0.136494	0.071313
0.082970	-0.096472	-0.182187	0.082970
0.071737	-0.153221	-0.227693	0.071737
0.071972	-0.135501	-0.210196	0.071972
0.083625	-0.077881	-0.164218	0.083625
0.095231	-0.037627	-0.129848	0.095231
0.095368	-0.031799	-0.124170	0.095368
0.089793	-0.083098	-0.175616	0.089793
0.084242	-0.042821	-0.129776	0.084242
0.078712	-0.036969	-0.118384	0.078712
0.078916	-0.053983	-0.129879	0.078916
0.084828	-0.105188	-0.187008	0.084828
0.107847	-0.133341	-0.238192	0.107847
0.125061	-0.132825	-0.260613	0.125061
0.125072	-0.149441	-0.277229	0.125072
0.107952	-0.131726	-0.236673	0.107952
0.102323	-0.119792	-0.219121	0.102323
0.119557	-0.090775	-0.213061	0.119557
0.108168	-0.107559	-0.218444	0.108168
0.102536	-0.141403	-0.240934	0.102536
0.108347	-0.135135	-0.246200	0.108347
0.136975	-0.106050	-0.240021	0.136975
0.148353	-0.059952	-0.205314	0.148353
0.148264	-0.042594	-0.187879	0.148264
0.136754	-0.076699	-0.216196	0.136754
0.148131	-0.122084	-0.272947	0.148131
0.136620	-0.150151	-0.289491	0.136620
0.108024	-0.126709	-0.231731	0.108024
0.085255	-0.171885	-0.254150	0.085255
0.102551	-0.194033	-0.299316	0.102551
0.114065	-0.176116	-0.287192	0.114065
0.108401	-0.124009	-0.229432	0.108401
0.102759	-0.089245	-0.194749	0.102759
0.102850	-0.117436	-0.223020	0.102850
0.091520	-0.162641	-0.256883	0.091520
0.063105	-0.201949	-0.267764	0.063105
0.046226	-0.223962	-0.267178	0.046226
0.040838	-0.257305	-0.300854	0.040838
0.046892	-0.239115	-0.288707	0.046892
0.052921	-0.209577	-0.259477	0.052921
0.070346	-0.202999	-0.270336	0.070346
0.076279	-0.224998	-0.303990	0.076279
0.082187	-0.195511	-0.280400	0.082187
0.065230	-0.160433	-0.228354	0.065230
0.048341	-0.171180	-0.222201	0.048341
0.037233	-0.187591	-0.227492	0.037233
0.049011	-0.192512	-0.238469	0.049011
0.072161	-0.174570	-0.243690	0.072161
0.083795	-0.173831	-0.260308	0.083795
0.095382	-0.161672	-0.254014	0.095382
0.095500	-0.109589	-0.202061	0.095500
0.078486	-0.086270	-0.167451	0.078486
0.055832	-0.131569	-0.184374	0.055832
0.044690	-0.165261	-0.206936	0.044690
0.056436	-0.181681	-0.235114	0.056436
0.056712	-0.226585	-0.286017	0.056712
0.062698	-0.174227	-0.233922	0.062698
0.074369	-0.110660	-0.187750	0.074369
0.085992	-0.190111	-0.273102	0.085992
0.091857	-0.223552	-0.318130	0.091857
0.103408	-0.211171	-0.311578	0.103408
0.109200	-0.198839	-0.310761	0.109200
0.103548	-0.232238	-0.338496	0.103548
0.120759	-0.231235	-0.348984	0.120759
0.137900	-0.178842	-0.313743	0.137900
0.160679	-0.109531	-0.272934	0.160679
0.177654	-0.029081	-0.209448	0.177654
0.194559	0.045329	-0.146220	0.194559
0.245654	0.170827	-0.077540	0.245654
0.307960	0.290100	-0.020562	0.307960
0.341456	0.386040	0.047605	0.341456
0.369102	0.550109	0.178305	0.369102
0.419473	0.730632	0.308468	0.419473
0.463925	0.864728	0.398123	0.463925
0.491060	0.918323	0.430305	0.491060
0.478107	0.988821	0.508033	0.478107
0.442363	1.036182	0.596860	0.442363
0.372500	1.111892	0.736710	0.372500
0.325761	1.290068	0.967347	0.325761
0.307763	1.478925	1.174189	0.307763
0.284127	1.484266	1.203155	0.284127
0.220612	1.301132	1.083523	0.220612
0.094543	1.055924	0.958662	0.094543
-0.019589	0.817423	0.840015	-0.019589
-0.121833	0.602733	0.721846	-0.121833
-0.252209	0.417469	0.666969	-0.252209
-0.427731	0.267223	0.692256	-0.427731
-0.516874	0.191824	0.706012	-0.516874
-0.457180	0.196677	0.651182	-0.457180
-0.357755	0.161536	0.516627	-0.357755
-0.287284	0.075145	0.359778	-0.287284
-0.217100	0.000529	0.220698	-0.217100
-0.152911	-0.016679	0.133579	-0.152911
-0.083274	-0.016684	0.063947	-0.083274
-0.048182	-0.005269	0.040282	-0.048182
-0.030365	0.023230	0.056686	-0.030365
-0.018330	-0.005490	0.010208	-0.018330
0.010787	-0.062644	-0.070342	0.010787
0.062626	-0.056750	-0.116299	0.062626
0.108542	-0.073720	-0.184908	0.108542
0.114298	-0.113461	-0.230393	0.114298
0.120029	-0.135908	-0.252849	0.120029
0.120026	-0.141130	-0.258081	0.120026
0.102891	-0.152039	-0.257578	0.102891
0.091536	-0.145772	-0.239944	0.091536
0.091647	-0.145239	-0.239512	0.091647
0.108889	-0.127576	-0.233369	0.108889
0.114639	-0.132825	-0.244380	0.114639
0.120364	-0.132342	-0.249634	0.120364
0.120355	-0.114727	-0.237734	0.120355
0.103215	-0.125736	-0.231590	0.103215
0.074723	-0.165249	-0.242601	0.074723
0.086320	-0.170338	-0.253565	0.086320
0.092159	-0.181114	-0.275903	0.092159
0.103684	-0.140451	-0.246754	0.103684
0.115161	-0.128505	-0.246273	0.115161
0.149431	-0.145158	-0.297186	0.149431
0.172140	-0.081798	-0.250812	0.172140
0.143361	-0.110060	-0.256020	0.143361
0.137541	-0.172468	-0.306886	0.137541
0.120323	-0.217488	-0.334700	0.120323
0.126016	-0.250900	-0.379528	0.126016
0.143106	-0.204229	-0.344225	0.143106
0.142994	-0.152037	-0.297643	0.142994
0.154301	-0.157160	-0.308353	0.154301
0.159852	-0.162261	-0.324727	0.159852
0.159668	-0.184470	-0.341030	0.159668
0.159484	-0.189455	-0.351554	0.159484
0.142168	-0.217259	-0.362032	0.142168
0.136344	-0.199265	-0.332492	0.136344
0.130542	-0.147081	-0.274518	0.130542
0.141894	-0.135081	-0.279593	0.141894
0.141778	-0.140260	-0.278935	0.141778
0.130241	-0.105444	-0.238305	0.130241
0.135882	-0.105031	-0.243521	0.135882
0.147208	-0.144592	-0.288687	0.147208
0.152777	-0.172568	-0.327954	0.152777
0.146902	-0.177586	-0.327086	0.146902
0.152470	-0.154030	-0.303378	0.152470
0.169435	-0.124860	-0.296895	0.169435
0.180619	-0.072966	-0.256174	0.180619
0.208887	-0.061256	-0.267010	0.208887
0.225617	-0.118117	-0.346324	0.225617
0.190884	-0.129061	-0.316814	0.190884
0.156292	-0.099986	-0.258870	0.156292
0.150392	-0.099582	-0.246844	0.150392
0.155936	-0.127729	-0.280548	0.155936
0.155746	-0.184312	-0.342663	0.155746
0.195528	-0.149295	-0.347417	0.195528
0.223724	-0.120131	-0.340729	0.223724
0.206121	-0.096796	-0.305513	0.206121
0.205720	-0.084975	-0.287570	0.205720
0.199609	-0.113174	-0.309670	0.199609
0.187810	-0.135547	-0.325966	0.187810
0.187480	-0.112143	-0.296511	0.187480
0.187149	-0.128806	-0.318566	0.187149
0.192529	-0.116849	-0.306266	0.192529
0.197885	-0.076387	-0.276884	0.197885
0.214638	-0.064641	-0.281881	0.214638
0.219901	-0.052943	-0.269724	0.219901
0.219430	-0.024162	-0.240484	0.219430
0.207539	-0.064021	-0.274174	0.207539
0.207116	-0.080875	-0.284884	0.207116
0.218113	-0.046266	-0.266995	0.218113
0.246195	-0.040350	-0.289149	0.246195
0.245608	-0.091560	-0.339762	0.245608
0.256442	-0.074036	-0.333061	0.256442
0.238679	-0.028031	-0.269282	0.238679
0.238117	-0.073579	-0.314257	0.238117
0.237556	-0.124650	-0.364756	0.237556
0.236995	-0.152669	-0.386493	0.236995
0.242146	-0.129179	-0.373876	0.242146
0.258694	-0.088653	-0.349887	0.258694
0.275172	-0.071133	-0.348834	0.275172
0.268739	-0.076525	-0.342072	0.268739
0.273751	-0.087604	-0.363886	0.273751
0.284451	-0.104347	-0.385608	0.284451
0.277973	-0.086759	-0.367265	0.277973
0.237259	-0.097793	-0.337574	0.237259
0.230971	-0.074519	-0.302290	0.230971
0.236127	-0.097022	-0.335673	0.236127
0.252682	-0.108010	-0.363205	0.252682
0.286297	-0.056140	-0.344939	0.286297
0.308352	-0.027322	-0.332455	0.308352
0.307473	-0.032883	-0.337150	0.307473
0.300885	-0.021290	-0.324692	0.300885
0.277190	-0.061137	-0.340833	0.277190
0.276432	-0.055138	-0.328354	0.276432
0.287095	-0.072003	-0.361605	0.287095
0.286292	-0.060247	-0.349035	0.286292
0.291200	-0.031407	-0.319382	0.291200
0.301795	0.003026	-0.295558	0.301795
0.295214	-0.065468	-0.357483	0.295214
0.294368	-0.087998	-0.384890	0.294368
0.276392	-0.047621	-0.320816	0.276392
0.235647	-0.041671	-0.279843	0.235647
0.235038	-0.127109	-0.364662	0.235038
0.251561	-0.115121	-0.369185	0.251561
0.256594	-0.063208	-0.316584	0.256594
0.261604	-0.045769	-0.309878	0.261604
0.260881	-0.022690	-0.286066	0.260881
0.254449	-0.022546	-0.273769	0.254449
0.225200	-0.090927	-0.312913	0.225200
0.184648	-0.107633	-0.289080	0.184648
0.155681	-0.095718	-0.253921	0.155681
0.183936	-0.112402	-0.298848	0.183936
0.189231	-0.129017	-0.315038	0.189231
0.160242	-0.111300	-0.274054	0.160242
0.159921	-0.093655	-0.250367	0.159921
0.153891	-0.104632	-0.261037	0.153891
0.159304	-0.109853	-0.265950	0.159304
0.136142	-0.132182	-0.270840	0.136142
0.113075	-0.125866	-0.235736	0.113075
0.101521	-0.102444	-0.200773	0.101521
0.101435	-0.113379	-0.211634	0.101435
0.101348	-0.124267	-0.228159	0.101348
0.089840	-0.192213	-0.278875	0.089840
0.078379	-0.208486	-0.283699	0.078379
0.078385	-0.179007	-0.259949	0.078385
0.066969	-0.172488	-0.236293	0.066969
0.049889	-0.183126	-0.229863	0.049889
0.061431	-0.176586	-0.240589	0.061431
0.061504	-0.164362	-0.222716	0.061504
0.061577	-0.163606	-0.227756	0.061577
0.055938	-0.168562	-0.221352	0.055938
0.056033	-0.156365	-0.209262	0.056033
0.050416	-0.155637	-0.202929	0.050416
0.033401	-0.194882	-0.230883	0.033401
-0.000675	-0.228255	-0.230168	-0.000675
-0.006060	-0.221516	-0.212323	-0.006060
0.028550	-0.203381	-0.228811	0.028550
0.057307	-0.168188	-0.222387	0.057307
0.063105	-0.150269	-0.215988	0.063105
0.057457	-0.195234	-0.255295	0.057457
0.028992	-0.234303	-0.260177	0.028992
0.017774	-0.216107	-0.230775	0.017774
0.006601	-0.209403	-0.212911	0.006601
