0.067059	-0.070907	-0.136870	0.127526
0.146387	0.004095	-0.141202	0.134790
0.276782	0.141604	-0.134093	0.137249
0.241041	0.107240	-0.132721	0.138542
0.194023	0.084438	-0.114220	0.147893
0.181457	0.084572	-0.101503	0.168205
0.168942	0.056153	-0.111677	0.192140
0.167896	0.033563	-0.133227	0.208971
0.201115	0.062458	-0.137555	0.212706
0.171382	0.039843	-0.130442	0.204963
0.193162	0.057294	-0.134776	0.192260
0.214851	0.057544	-0.150510	0.181381
0.236448	0.069213	-0.166177	0.177012
0.240824	0.103677	-0.136094	0.181370
0.176656	0.069477	-0.106131	0.193405
0.181272	0.075389	-0.104840	0.207926
0.311495	0.206904	-0.109262	0.218446
0.378368	0.269357	-0.113664	0.224340
0.330757	0.223057	-0.106624	0.233288
0.271917	0.148394	-0.122451	0.252665
0.219026	0.091169	-0.132501	0.279493
0.286265	0.176936	-0.108245	0.301758
0.296124	0.193827	-0.101217	0.309534
0.163181	0.079312	-0.082794	0.302297
0.139277	0.056632	-0.081576	0.284405
0.183993	0.091148	-0.097491	0.258486
0.279917	0.182627	-0.096207	0.227829
0.266949	0.182366	-0.083505	0.201311
0.208349	0.113581	-0.093694	0.189496
0.184249	0.079341	-0.103840	0.195032
0.268741	0.176579	-0.091099	0.210255
0.192996	0.107819	-0.089829	0.224983
0.146111	0.079313	-0.065721	0.232941
0.185070	0.136580	-0.047419	0.231116
0.206738	0.165060	-0.046321	0.219489
0.171211	0.107769	-0.068067	0.202653
0.101566	-0.017811	-0.118273	0.186781
0.140701	0.039855	-0.099747	0.174071
0.099729	0.028762	-0.069873	0.162512
0.036083	-0.033677	-0.068672	0.149428
-0.044434	-0.101570	-0.056052	0.132072
-0.050388	-0.106368	-0.054902	0.106716
0.046469	-0.019780	-0.065176	0.071815
0.102956	0.043613	-0.058274	0.033581
0.124948	0.049645	-0.074239	0.005792
0.186821	0.089915	-0.095847	0.001508
0.151363	0.067207	-0.083103	0.024651
0.087497	0.016041	-0.070407	0.067416
0.023892	-0.040625	-0.063472	0.112735
0.000518	-0.085636	-0.085115	0.141189
0.017212	-0.067647	-0.089536	0.140601
-0.006135	-0.072572	-0.065384	0.112206
-0.040807	-0.117447	-0.075591	0.068244
0.016027	-0.087901	-0.102885	0.023665
-0.013027	-0.104157	-0.090092	-0.010202
-0.070513	-0.160316	-0.088769	-0.028322
-0.002138	-0.102037	-0.098871	-0.032910
0.043116	-0.049704	-0.091797	-0.029952
0.036791	-0.048977	-0.090460	-0.022922
-0.009481	-0.093934	-0.083416	-0.012067
-0.078405	-0.155835	-0.076398	0.000501
-0.135626	-0.211770	-0.080827	0.007807
-0.055564	-0.136135	-0.085235	0.001707
-0.021513	-0.100780	-0.078203	-0.019219
-0.033284	-0.116961	-0.082617	-0.046105
-0.045007	-0.127362	-0.081300	-0.066191
-0.039551	-0.114878	-0.074276	-0.072344
0.000144	-0.068180	-0.067279	-0.065716
-0.057399	-0.141588	-0.083149	-0.051902
-0.006210	-0.089066	-0.087531	-0.037076
-0.058018	-0.122412	-0.063341	-0.026086
-0.052509	-0.109937	-0.056379	-0.021511
-0.069865	-0.114641	-0.049442	-0.023874
-0.070019	-0.119324	-0.048243	-0.032166
-0.041620	-0.089724	-0.047046	-0.043868
-0.093282	-0.151607	-0.057273	-0.055453
-0.116180	-0.201814	-0.084586	-0.064530
-0.087592	-0.183289	-0.094654	-0.071693
-0.053409	-0.153415	-0.098968	-0.078559
-0.030788	-0.106531	-0.080420	-0.084097
-0.048231	-0.111229	-0.061946	-0.084762
-0.014211	-0.081644	-0.072097	-0.078129
-0.003171	-0.057888	-0.053652	-0.064952
-0.054990	-0.131304	-0.075253	-0.048304
-0.032363	-0.101630	-0.068211	-0.032643
-0.026960	-0.089207	-0.055485	-0.022444
-0.090103	-0.151066	-0.059940	-0.019906
-0.135856	-0.201249	-0.058665	-0.025273
-0.164290	-0.216961	-0.051682	-0.039195
-0.095532	-0.164082	-0.067566	-0.061914
-0.044185	-0.111417	-0.071963	-0.089187
-0.118676	-0.190303	-0.070628	-0.111710
-0.175730	-0.217470	-0.046456	-0.122209
-0.181157	-0.215970	-0.039511	-0.122773
-0.146588	-0.203053	-0.055434	-0.122353
-0.123581	-0.195896	-0.071289	-0.127428
-0.072115	-0.131662	-0.058526	-0.136557
-0.055123	-0.096241	-0.040102	-0.142463
-0.106723	-0.140907	-0.033172	-0.138306
-0.129560	-0.162546	-0.026268	-0.123741
-0.180855	-0.235486	-0.053653	-0.106325
-0.169125	-0.222469	-0.052371	-0.096731
-0.208835	-0.249475	-0.039672	-0.101911
-0.139885	-0.185002	-0.044153	-0.121283
-0.094057	-0.126500	-0.037194	-0.146840
-0.139783	-0.159600	-0.013129	-0.166756
-0.196740	-0.226824	-0.029134	-0.172899
-0.242043	-0.253797	-0.010809	-0.167457
-0.167242	-0.206422	-0.038240	-0.160738
-0.166980	-0.210631	-0.042715	-0.161246
-0.189560	-0.226240	-0.041459	-0.169088
-0.137812	-0.184678	-0.045916	-0.178652
-0.137668	-0.177546	-0.038932	-0.184096
-0.103262	-0.130467	-0.026265	-0.181697
-0.091838	-0.112131	-0.019357	-0.170382
-0.137563	-0.168101	-0.029607	-0.152079
-0.188811	-0.223840	-0.034102	-0.132199
-0.268399	-0.313608	-0.044287	-0.119411
-0.262004	-0.283088	-0.020167	-0.122672
-0.175690	-0.195587	-0.013274	-0.145212
-0.141121	-0.154123	-0.012117	-0.179419
-0.095272	-0.107116	-0.010964	-0.209019
-0.106714	-0.117402	-0.009813	-0.218786
-0.129528	-0.121933	0.008466	-0.203856
-0.140829	-0.143574	-0.001879	-0.171927
-0.169213	-0.193676	-0.023601	-0.137917
-0.163218	-0.192176	-0.028101	-0.115558
-0.300004	-0.322017	-0.015450	-0.112139
-0.207815	-0.222909	-0.014269	-0.128522
-0.076031	-0.107073	-0.030222	-0.158939
-0.030440	-0.054522	-0.023266	-0.188753
-0.122084	-0.156363	-0.033467	-0.199727
-0.236194	-0.263495	-0.026494	-0.184667
-0.235628	-0.244557	-0.013836	-0.155666
-0.183670	-0.162879	0.021612	-0.134389
-0.194737	-0.161478	0.034076	-0.134259
-0.205757	-0.200052	0.006519	-0.152986
-0.233862	-0.255595	-0.020924	-0.179351
-0.278981	-0.316618	-0.036832	-0.203521
-0.209708	-0.240339	-0.035542	-0.221676
-0.060772	-0.084425	-0.022834	-0.232625
-0.043783	-0.083326	-0.044438	-0.231651
-0.152491	-0.185014	-0.031690	-0.212351
-0.192229	-0.206339	-0.013281	-0.176898
-0.146148	-0.147628	-0.000656	-0.139550
-0.191620	-0.186231	0.006209	-0.116414
-0.265456	-0.258934	0.001627	-0.114968
-0.219071	-0.245681	-0.025775	-0.133721
-0.161454	-0.169666	-0.007381	-0.165186
-0.166886	-0.162482	-0.000480	-0.197142
-0.178005	-0.183877	-0.005027	-0.217115
-0.137684	-0.159498	-0.020974	-0.219230
-0.131789	-0.180899	-0.048274	-0.205819
-0.120208	-0.156527	-0.035487	-0.183463
-0.194327	-0.212196	-0.017041	-0.159551
-0.193908	-0.204820	-0.010089	-0.141517
-0.159228	-0.151789	0.008258	-0.135275
-0.147530	-0.121813	0.026531	-0.141414
-0.118748	-0.103378	0.016179	-0.153829
-0.141476	-0.124989	0.011582	-0.163695
-0.175531	-0.163639	0.012716	-0.165524
-0.169473	-0.156446	0.013847	-0.160419
-0.157728	-0.137858	0.020686	-0.153925
-0.128900	-0.119344	0.010367	-0.150562
-0.140161	-0.146586	-0.005618	-0.150536
-0.162796	-0.168003	-0.010115	-0.151269
-0.128233	-0.132226	0.002539	-0.150881
-0.122364	-0.108014	0.009434	-0.149065
-0.145069	-0.123870	0.022012	-0.145821
-0.104867	-0.071135	0.028830	-0.141273
-0.150484	-0.115690	0.035621	-0.136100
-0.201623	-0.171480	0.025256	-0.131929
-0.206869	-0.187066	0.020645	-0.132085
-0.206382	-0.191165	0.016055	-0.140193
-0.165923	-0.149561	0.017195	-0.156389
-0.068525	-0.056732	0.012623	-0.174926
-0.097154	-0.061356	0.036622	-0.185728
-0.217029	-0.191586	0.026263	-0.181304
-0.222206	-0.207074	0.021658	-0.165021
-0.175967	-0.199653	-0.017188	-0.149859
-0.152758	-0.192259	-0.038742	-0.146522
-0.141063	-0.150631	-0.003102	-0.154779
-0.175098	-0.154853	0.026684	-0.166470
-0.174731	-0.130503	0.039218	-0.174074
-0.151522	-0.106250	0.045992	-0.175459
-0.162670	-0.139197	0.024189	-0.172406
-0.202322	-0.183426	0.019607	-0.167728
-0.133315	-0.118976	0.015046	-0.164196
-0.104562	-0.077628	0.027637	-0.162771
-0.161580	-0.144944	0.017336	-0.161136
-0.218364	-0.211980	0.007079	-0.157168
-0.183549	-0.170243	0.008287	-0.153378
-0.097483	-0.100122	-0.001929	-0.154045
-0.125975	-0.144492	-0.023522	-0.158400
-0.114377	-0.125864	-0.016473	-0.160508
-0.125667	-0.107310	0.024812	-0.155740
-0.119779	-0.065988	0.048798	-0.144691
-0.125335	-0.093356	0.032715	-0.131594
-0.050924	-0.006404	0.045251	-0.120486
0.017473	0.063063	0.040607	-0.111434
-0.022907	0.018039	0.035983	-0.099813
-0.080253	-0.015377	0.065642	-0.081596
-0.074550	0.002738	0.078049	-0.059687
-0.051739	0.032201	0.084697	-0.042427
-0.108965	-0.029820	0.079898	-0.036205
-0.171667	-0.080165	0.092251	-0.042347
-0.211270	-0.107460	0.098845	-0.060092
-0.159344	-0.077537	0.082571	-0.088226
-0.079078	0.037920	0.117758	-0.121951
-0.090506	0.038699	0.129960	-0.150776
-0.016231	0.079448	0.096431	-0.162990
0.034898	0.102901	0.068750	-0.152274
0.028713	0.097707	0.069736	-0.119754
-0.028839	0.029721	0.053589	-0.073274
-0.023342	0.041960	0.066060	-0.026077
0.016394	0.105543	0.089902	0.008237
0.010284	0.100342	0.090807	0.023268
0.004199	0.060902	0.057447	0.022294
0.032401	0.090148	0.052777	0.013738
0.009093	0.067882	0.059549	0.005592
-0.036960	0.011446	0.049163	0.002041
-0.122797	-0.067597	0.055952	0.001391
-0.042683	-0.003557	0.039873	-0.002796
0.008552	0.014539	0.006731	-0.014986
0.013894	0.026853	0.013699	-0.031276
0.019213	0.044829	0.026350	-0.041967
0.070193	0.108414	0.038951	-0.039732
0.143805	0.171740	0.028662	-0.023047
0.188562	0.200544	0.006995	0.006487
0.118927	0.132156	0.013970	0.045997
0.021025	0.069758	0.049471	0.088598
-0.025084	0.030458	0.056276	0.121218
0.026071	0.071265	0.040213	0.130120
0.116988	0.163299	0.041349	0.111927
0.093326	0.135039	0.042481	0.078751
0.092600	0.141158	0.043611	0.050123
0.080456	0.118700	0.033317	0.039264
0.034099	0.062074	0.028777	0.046467
-0.023490	0.011390	0.029967	0.061717
-0.069422	-0.027663	0.036865	0.071104
-0.052352	0.013389	0.066578	0.063831
0.033171	0.082827	0.050487	0.038447
0.004138	0.049196	0.040175	0.004726
0.038036	0.095648	0.058458	-0.022334
0.094636	0.153331	0.059536	-0.031810
0.105321	0.142254	0.037770	-0.020741
0.053147	0.091251	0.038937	0.006890
-0.027365	0.017617	0.045810	0.040894
-0.027603	0.018520	0.041237	0.066849
-0.016419	0.042262	0.053814	0.072791
0.086083	0.145852	0.060632	0.057315
0.056827	0.117682	0.061712	0.031557
0.061953	0.118179	0.057079	0.011646
0.055636	0.107254	0.052467	0.007648
0.117867	0.164898	0.053585	0.019344
0.099898	0.142362	0.037570	0.040602
0.047740	0.097077	0.044463	0.064389
0.041477	0.103372	0.057040	0.083702
0.023819	0.086800	0.063856	0.092239
0.023363	0.076008	0.047804	0.087225
0.028619	0.059551	0.031820	0.071133
0.073825	0.077423	-0.001228	0.050601
0.061742	0.049542	-0.011297	0.033832
0.072548	0.056037	-0.021323	0.027091
0.043338	-0.000306	-0.042726	0.031580
0.099901	0.052079	-0.046909	0.043411
0.167651	0.149933	-0.016810	0.057763
0.212282	0.270229	0.058851	0.073794
0.165362	0.298665	0.134203	0.094481
0.141474	0.321274	0.180695	0.120776
0.129103	0.372341	0.244129	0.147449
0.162464	0.514563	0.352985	0.166272
0.224238	0.684750	0.461394	0.173220
0.262915	0.785713	0.529385	0.172523
0.290011	0.880547	0.591385	0.174037
0.311283	0.946435	0.635997	0.186463
0.303913	1.006336	0.703264	0.212093
0.273729	1.048855	0.775961	0.245925
0.255087	1.142585	0.888329	0.278238
0.236519	1.304446	1.068755	0.299132
0.172342	1.431373	1.259855	0.302692
0.102715	1.483536	1.381639	0.287816
0.101897	1.421268	1.314475	0.256485
0.038267	1.222197	1.184764	0.212940
-0.082206	0.978251	1.055575	0.162645
-0.167924	0.775269	0.944040	0.108630
-0.196186	0.670188	0.867218	0.049651
-0.315696	0.542693	0.853518	-0.016443
-0.531789	0.358614	0.885551	-0.090537
-0.638497	0.283784	0.923158	-0.175250
-0.653398	0.254941	0.909213	-0.274953
-0.576868	0.209086	0.786822	-0.387713
-0.540619	0.106314	0.647797	-0.498614
-0.504514	0.021095	0.526469	-0.584621
-0.337216	0.096116	0.439898	-0.626705
-0.256256	0.096595	0.359389	-0.617066
-0.227018	0.057101	0.284919	-0.559327
-0.243581	0.006350	0.250726	-0.467905
-0.254364	-0.021351	0.228093	-0.366068
-0.185156	0.019586	0.205553	-0.278349
-0.156203	0.026096	0.183105	-0.219731
-0.195891	-0.047364	0.143618	-0.190497
-0.218285	-0.103391	0.115715	-0.181618
-0.286267	-0.170606	0.116478	-0.184318
-0.228342	-0.129047	0.100108	-0.194444
-0.199205	-0.110497	0.089516	-0.209584
-0.198737	-0.120572	0.073258	-0.224802
-0.129745	-0.073500	0.057068	-0.233166
-0.169532	-0.117984	0.058077	-0.229600
-0.231995	-0.162283	0.070503	-0.214407
-0.242809	-0.166426	0.077170	-0.194926
-0.213604	-0.141997	0.072389	-0.181952
-0.184517	-0.134796	0.056209	-0.181704
-0.258333	-0.213277	0.040096	-0.191906
-0.246191	-0.200068	0.046892	-0.206223
-0.211255	-0.164069	0.047952	-0.219988
-0.176461	-0.128214	0.049008	-0.230230
-0.181781	-0.132476	0.050062	-0.233690
-0.204208	-0.153849	0.051112	-0.228313
-0.192280	-0.146579	0.046449	-0.216011
-0.226082	-0.190730	0.036097	-0.202209
-0.202641	-0.160462	0.037209	-0.192629
-0.207846	-0.158867	0.044028	-0.190258
-0.247290	-0.197248	0.050821	-0.194490
-0.275150	-0.229759	0.046166	-0.203242
-0.280053	-0.256422	0.018691	-0.215500
-0.216409	-0.208738	0.008461	-0.230608
-0.215839	-0.195508	0.021116	-0.245425
-0.198138	-0.176619	0.016590	-0.254326
-0.111984	-0.083570	0.023504	-0.252434
-0.128968	-0.082265	0.041813	-0.237624
-0.202985	-0.155197	0.048627	-0.211625
-0.225305	-0.187855	0.032574	-0.182092
-0.179008	-0.140432	0.039429	-0.160573
-0.195712	-0.138883	0.057678	-0.154644
-0.223767	-0.143048	0.081564	-0.163133
-0.194603	-0.107221	0.088222	-0.179343
-0.194108	-0.117221	0.077723	-0.196055
-0.205034	-0.132887	0.072979	-0.207854
-0.158811	-0.102804	0.056835	-0.212146
-0.164169	-0.124235	0.040758	-0.208913
-0.175215	-0.128444	0.047590	-0.199665
-0.180503	-0.126923	0.048684	-0.187359
-0.197189	-0.142537	0.049776	-0.176216
-0.208095	-0.169504	0.039444	-0.170204
-0.184693	-0.156386	0.029156	-0.171242
-0.127124	-0.086216	0.041753	-0.177671
-0.064079	-0.010620	0.054299	-0.183518
-0.075526	0.001855	0.078217	-0.180571
-0.104057	-0.031403	0.067775	-0.163944
-0.075367	-0.013130	0.063088	-0.136586
-0.069636	0.005070	0.075552	-0.107169
-0.069638	-0.022485	0.047994	-0.083640
-0.075349	-0.032795	0.043392	-0.069463
-0.086748	-0.020219	0.067362	-0.064224
-0.132361	-0.047666	0.079814	-0.065985
-0.149234	-0.063577	0.086506	-0.073441
-0.160328	-0.068000	0.093171	-0.086420
-0.159954	-0.060983	0.099810	-0.104350
-0.182421	-0.088253	0.095003	-0.124959
-0.170534	-0.086859	0.084506	-0.144945
-0.118721	-0.051205	0.068342	-0.161048
-0.038569	0.035697	0.080798	-0.169420
-0.067240	0.019459	0.093204	-0.165377
-0.101505	-0.036684	0.065587	-0.146971
-0.015711	0.055874	0.072348	-0.118774
0.058310	0.136633	0.084791	-0.088382
0.074925	0.165669	0.091475	-0.059047
0.005815	0.097511	0.092422	-0.029342
-0.068721	0.006791	0.081946	-0.000307
-0.034456	0.042072	0.082934	0.020725
0.005379	0.077209	0.072499	0.026018
-0.000632	0.043680	0.044976	0.015912
-0.006619	0.067393	0.074671	-0.000976
-0.024002	0.068168	0.087115	-0.015092
0.004369	0.057520	0.048116	-0.021783
0.044045	0.069758	0.026409	-0.021022
0.032164	0.081948	0.050475	-0.014084
-0.013931	0.071247	0.080154	-0.002602
0.020108	0.106273	0.086871	0.009925
0.088269	0.169708	0.082142	0.019510
0.104757	0.187202	0.083143	0.026110
0.109755	0.181782	0.078431	0.034255
0.063340	0.153543	0.090870	0.047876
0.039954	0.142551	0.103260	0.065316
0.102319	0.165867	0.058496	0.080220
0.090193	0.137694	0.048179	0.087630
0.060985	0.115348	0.060747	0.087945
0.066158	0.121645	0.056134	0.084416
0.065599	0.122207	0.062962	0.079426
0.122144	0.185581	0.069763	0.074536
0.132774	0.203012	0.070827	0.072291
0.143359	0.214662	0.071888	0.076093
0.148189	0.209133	0.061525	0.087709
0.187259	0.255019	0.068337	0.105702
0.169065	0.249324	0.080833	0.126699
0.116681	0.197969	0.076148	0.146764
0.155876	0.215349	0.060062	0.161418
0.154937	0.221236	0.072595	0.167288
0.136869	0.227099	0.090788	0.164807
0.124584	0.238648	0.114619	0.157466
0.129479	0.244439	0.115511	0.148636
0.094381	0.215944	0.122110	0.140054
0.110818	0.244668	0.128684	0.131991
0.087214	0.199041	0.112390	0.123975
0.057996	0.170731	0.113294	0.115455
0.080290	0.205350	0.119906	0.105857
0.073940	0.205566	0.126492	0.095116
0.044774	0.171519	0.127341	0.084339
0.067119	0.200425	0.133898	0.074872
0.072241	0.217792	0.140429	0.067429
0.048790	0.177985	0.129802	0.062501
0.065406	0.184023	0.119220	0.060182
0.133347	0.264270	0.137234	0.060210
0.046829	0.195720	0.149464	0.063061
-0.045045	0.121740	0.161644	0.068048
-0.010916	0.156560	0.168065	0.069801
0.005942	0.179817	0.174460	0.061447
0.017021	0.174428	0.157988	0.042320
-0.017629	0.134798	0.153004	0.019200
-0.029295	0.106752	0.136621	-0.000071
-0.006652	0.118794	0.126016	-0.012050
-0.001233	0.130787	0.132586	-0.017364
0.004164	0.148441	0.144840	-0.017685
-0.030434	0.126052	0.157044	-0.014620
-0.070600	0.080913	0.152068	-0.010815
-0.127732	0.013119	0.141403	-0.010862
-0.133237	0.031259	0.159334	-0.020044
-0.053063	0.077877	0.131509	-0.040444
-0.047452	0.072913	0.120929	-0.066989
-0.001891	0.125073	0.127525	-0.088651
-0.036462	0.108496	0.145515	-0.095410
-0.076601	0.074857	0.152011	-0.085176
-0.070893	0.064197	0.135640	-0.065292
-0.065208	0.059293	0.125047	-0.047316
-0.065256	0.054410	0.125919	-0.039278
-0.008201	0.100941	0.109657	-0.041722
-0.025613	0.107310	0.127724	-0.048921
-0.117188	0.022288	0.134298	-0.054036
-0.117023	0.011850	0.123714	-0.055549
-0.076885	0.041429	0.118885	-0.057951
-0.059752	0.065177	0.125497	-0.065016
-0.014137	0.111671	0.126372	-0.074467
-0.071496	0.060899	0.138665	-0.080090
-0.117198	0.016046	0.133777	-0.078301
-0.099899	0.028482	0.123200	-0.072277
-0.048408	0.086551	0.129798	-0.068548
-0.042810	0.115831	0.153500	-0.069759
-0.088628	0.070758	0.159975	-0.072883
-0.139968	0.014450	0.155004	-0.074688
-0.076891	0.089711	0.161473	-0.076187
0.014480	0.181796	0.162207	-0.079364
0.014111	0.176428	0.157227	-0.081153
-0.009097	0.131110	0.140848	-0.074788
-0.060762	0.085978	0.147377	-0.057807
-0.117926	0.046742	0.159591	-0.036680
-0.123462	0.053351	0.177466	-0.023306
-0.117554	0.054223	0.172426	-0.026929
-0.037435	0.123617	0.161697	-0.047433
0.002384	0.164176	0.162433	-0.074271
-0.055036	0.113203	0.174587	-0.092544
-0.049408	0.102412	0.152430	-0.093217
-0.083774	0.074535	0.158915	-0.078893
-0.060896	0.086746	0.148244	-0.060074
-0.020980	0.127458	0.143327	-0.046601
-0.021200	0.133743	0.149851	-0.041523
-0.095653	0.082899	0.173480	-0.041821
-0.067015	0.112209	0.179882	-0.044267
-0.032784	0.141400	0.174837	-0.048276
-0.055796	0.119078	0.175524	-0.053221
-0.055872	0.113979	0.164787	-0.057013
-0.010265	0.166005	0.176936	-0.057939
-0.090472	0.097902	0.189036	-0.055719
-0.113246	0.058629	0.172534	-0.052195
-0.135927	0.030940	0.167521	-0.051999
-0.152803	0.009075	0.156819	-0.060148
-0.135348	0.044405	0.180423	-0.078074
-0.032308	0.170956	0.203930	-0.101471
0.047469	0.274148	0.221631	-0.120149
0.029842	0.222737	0.193577	-0.121568
-0.050525	0.091593	0.142797	-0.099504
-0.056330	0.069482	0.126487	-0.061227
-0.067820	0.047464	0.115955	-0.024048
-0.102105	0.025536	0.134018	-0.003814
-0.119117	0.020831	0.140587	-0.006824
-0.061825	0.090380	0.152841	-0.029289
-0.050450	0.119673	0.165045	-0.060184
-0.016280	0.160268	0.177199	-0.085746
0.029171	0.212116	0.177883	-0.095201
0.023043	0.183808	0.167143	-0.084583
-0.074426	0.109934	0.179290	-0.057991
-0.091551	0.082045	0.174256	-0.027316
-0.137157	0.025720	0.163532	-0.007926
-0.125472	0.043860	0.169984	-0.010466
-0.113834	0.056218	0.170700	-0.034982
-0.107953	0.051395	0.159992	-0.071569
-0.124936	0.052303	0.172170	-0.106524
-0.136139	0.041788	0.184298	-0.129880
-0.141585	0.037028	0.179246	-0.139396
-0.101325	0.066550	0.168504	-0.138908
-0.084070	0.078821	0.163517	-0.133350
-0.118278	0.051071	0.169971	-0.125447
-0.112374	0.051987	0.164979	-0.116692
-0.100782	0.052901	0.148587	-0.109124
-0.066396	0.082363	0.149394	-0.104216
-0.054992	0.105996	0.161618	-0.100920
-0.134999	0.032457	0.168082	-0.096784
-0.157574	0.010613	0.168810	-0.092024
-0.100111	0.068805	0.169535	-0.090719
-0.151379	0.035394	0.187389	-0.096203
-0.202436	-0.026430	0.170908	-0.107878
-0.241862	-0.059447	0.183046	-0.124175
-0.132656	0.039010	0.166583	-0.144569
-0.058158	0.079962	0.138767	-0.165545
-0.081040	0.069354	0.145327	-0.177884
-0.086698	0.087342	0.168993	-0.172780
-0.098041	0.082416	0.181141	-0.150297
-0.126469	0.043249	0.170398	-0.119956
-0.137648	0.038506	0.176830	-0.094440
-0.120229	0.045204	0.166105	-0.082831
-0.142853	0.023325	0.161135	-0.086850
-0.176804	0.001536	0.179027	-0.101904
-0.204904	-0.020162	0.179715	-0.121899
-0.215756	-0.036059	0.180400	-0.143076
-0.123776	0.056607	0.181083	-0.163423
-0.066435	0.108923	0.176053	-0.178971
-0.072141	0.103921	0.171044	-0.182672
-0.100665	0.070390	0.166055	-0.169550
-0.151912	0.002734	0.155377	-0.143050
-0.197238	-0.053222	0.144743	-0.115159
-0.185274	-0.034712	0.145574	-0.099809
-0.139095	0.012275	0.146402	-0.104274
-0.104525	0.047650	0.152937	-0.124277
-0.155751	-0.002773	0.159446	-0.147198
-0.183924	-0.013015	0.165929	-0.161796
-0.166299	-0.000373	0.166675	-0.165588
-0.137323	0.017929	0.155998	-0.163087
-0.114175	0.041868	0.156786	-0.158860
-0.131094	0.037159	0.168991	-0.153909
-0.119391	0.049601	0.169726	-0.147400
-0.159128	-0.006530	0.159038	-0.139628
-0.164438	0.023225	0.182656	-0.133007
-0.152595	0.030018	0.183336	-0.130761
-0.203613	-0.037449	0.166883	-0.134662
-0.134503	0.032409	0.161917	-0.143952
-0.117069	0.062011	0.174104	-0.155201
-0.156808	0.022968	0.174820	-0.163058
-0.116439	0.041190	0.158402	-0.163579
-0.127627	0.042208	0.170604	-0.156919
-0.150189	0.043223	0.194177	-0.146292
-0.104133	0.084207	0.183391	-0.135761
-0.138210	0.039369	0.178360	-0.128266
-0.132174	0.040399	0.167639	-0.124572
-0.114741	0.058556	0.168384	-0.124006
-0.080248	0.093772	0.174836	-0.124898
-0.097288	0.077451	0.169841	-0.124420
-0.102838	0.066908	0.170577	-0.120192
-0.102653	0.067830	0.177020	-0.112536
-0.119599	0.057329	0.177728	-0.104348
-0.102213	0.081134	0.184142	-0.098914
-0.124870	0.070580	0.196241	-0.097940
-0.147433	0.042939	0.191160	-0.101288
-0.158482	0.055386	0.208941	-0.108270
-0.146643	0.067782	0.215228	-0.118341
-0.117721	0.085839	0.204358	-0.130030
-0.094626	0.098112	0.193533	-0.139897
-0.111598	0.087495	0.199883	-0.143681
-0.157050	0.048371	0.206207	-0.139671
-0.179474	0.037959	0.218216	-0.131359
-0.138992	0.073274	0.218755	-0.125629
-0.115805	0.085604	0.196450	-0.126905
-0.132684	0.052202	0.185657	-0.133417
-0.178045	0.018938	0.197749	-0.140149
-0.211798	-0.025609	0.186951	-0.144836
-0.216859	-0.029999	0.187618	-0.150030
-0.181926	0.017023	0.199703	-0.159485
-0.141424	0.063854	0.206028	-0.173037
-0.123928	0.087653	0.212327	-0.185173
-0.129344	0.048542	0.184338	-0.188792
-0.157578	0.009592	0.162175	-0.180856
-0.191405	-0.017776	0.174364	-0.165214
-0.190831	-0.005058	0.180794	-0.150515
-0.144575	0.036161	0.181486	-0.144425
-0.178451	0.014399	0.199307	-0.148445
-0.183636	0.015569	0.199925	-0.158299
-0.165957	0.022446	0.189119	-0.168659
-0.136928	0.063558	0.195488	-0.175916
-0.085176	0.098793	0.184700	-0.177393
-0.096448	0.082491	0.179667	-0.170625
-0.096253	0.100519	0.197496	-0.154937
-0.141741	0.055660	0.198121	-0.133661
-0.158490	0.039538	0.198743	-0.113994
-0.163748	0.023483	0.193653	-0.103710
-0.203245	-0.009636	0.188583	-0.107060
-0.225448	-0.031197	0.194955	-0.123331
-0.196165	0.027277	0.218432	-0.148306
-0.092766	0.125485	0.213261	-0.174989
-0.081155	0.126215	0.208110	-0.193405
-0.115274	0.086972	0.202981	-0.194224
-0.143541	0.059310	0.203583	-0.175983
-0.120299	0.100286	0.221314	-0.147527
-0.119993	0.118255	0.238972	-0.121590
-0.142528	0.079047	0.222295	-0.106616
-0.170679	0.045711	0.217107	-0.104498
-0.147322	0.098167	0.240491	-0.112993
-0.124058	0.127568	0.252359	-0.127533
-0.089469	0.162560	0.252757	-0.141624
-0.066441	0.191698	0.258863	-0.148301
-0.077768	0.180744	0.259233	-0.143108
-0.134731	0.141284	0.271022	-0.127050
-0.174329	0.124828	0.299893	-0.107573
-0.150950	0.119859	0.271542	-0.095311
-0.047721	0.194857	0.243306	-0.096577
-0.030568	0.201023	0.232316	-0.107167
-0.076300	0.155771	0.232792	-0.115205
-0.076161	0.144966	0.216134	-0.111767
-0.076022	0.145627	0.216676	-0.097663
-0.127276	0.123444	0.251476	-0.080711
-0.109795	0.158456	0.269003	-0.069586
-0.092384	0.159063	0.252196	-0.069241
-0.086465	0.113985	0.201195	-0.078439
-0.074859	0.114775	0.190375	-0.090956
-0.103273	0.075590	0.179599	-0.100078
-0.125858	0.059407	0.185999	-0.102936
-0.102668	0.077554	0.180951	-0.101560
-0.113833	0.084207	0.193056	-0.099985
-0.084980	0.113675	0.199400	-0.100485
-0.101927	0.103051	0.205719	-0.102470
-0.084542	0.098181	0.183460	-0.103927
-0.090068	0.093332	0.184133	-0.103301
-0.118412	0.071372	0.190514	-0.100532
-0.118088	0.072345	0.191159	-0.097349
-0.112053	0.079025	0.191801	-0.096361
-0.111753	0.079969	0.192440	-0.098958
-0.162846	0.040937	0.204497	-0.104545
-0.173756	0.042038	0.210795	-0.112376
-0.178910	0.020296	0.205646	-0.122957
-0.161199	0.027195	0.189097	-0.136621
-0.120719	0.091170	0.218298	-0.151263
-0.057562	0.183436	0.241670	-0.161746
-0.023215	0.206800	0.230683	-0.161421
-0.080373	0.138703	0.219741	-0.145947
-0.120166	0.093727	0.214554	-0.118138
-0.154085	0.060356	0.209387	-0.089012
-0.136470	0.067095	0.204242	-0.071828
-0.067533	0.125201	0.199118	-0.073105
-0.061692	0.154518	0.211145	-0.087918
-0.078715	0.166584	0.240255	-0.103899
-0.107089	0.138628	0.240692	-0.110879
-0.141056	0.082236	0.223997	-0.107574
-0.180593	0.037496	0.218790	-0.100772
-0.168573	0.055755	0.225025	-0.099619
-0.099498	0.113911	0.214104	-0.108931
-0.024995	0.188962	0.208937	-0.124674
0.003521	0.235153	0.232342	-0.135215
-0.019473	0.229762	0.255652	-0.129091
-0.065214	0.184420	0.244603	-0.103960
-0.070795	0.167816	0.239309	-0.069153
-0.047801	0.191252	0.239747	-0.039262
-0.070583	0.168909	0.234473	-0.024453
-0.087561	0.152369	0.246350	-0.026091
-0.104468	0.135896	0.241048	-0.039506
-0.127016	0.102361	0.230056	-0.058708
-0.115208	0.091805	0.207689	-0.078995
-0.040634	0.149816	0.191123	-0.096699
-0.006337	0.139067	0.146073	-0.107236
-0.017864	0.128362	0.146891	-0.105358
-0.023633	0.146253	0.170547	-0.089247
-0.052219	0.152650	0.205527	-0.063746
-0.052136	0.244677	0.297466	-0.038445
-0.000660	0.376298	0.371897	-0.021962
0.056316	0.473116	0.423181	-0.016250
0.090216	0.580956	0.491383	-0.015097
0.141108	0.734033	0.593565	-0.008450
0.208921	0.903610	0.695325	0.011479
0.219351	0.986831	0.762402	0.047091
0.241158	1.035443	0.789227	0.095118
0.285714	1.106690	0.821647	0.148079
0.272983	1.166216	0.893901	0.197709
0.186067	1.191228	1.005826	0.237420
0.168029	1.341757	1.174388	0.261523
0.155775	1.520210	1.359383	0.265392
0.126438	1.646529	1.520768	0.248782
0.091510	1.606718	1.510172	0.217217
0.045303	1.418591	1.368270	0.178726
-0.023555	1.208382	1.226940	0.139312
-0.063580	1.061839	1.120441	0.100675
-0.149123	0.864496	1.014371	0.060929
-0.302838	0.690796	0.994383	0.016188
-0.427369	0.580617	1.008731	-0.039271
-0.477153	0.573672	1.045855	-0.111666
-0.503887	0.521069	1.020006	-0.202488
-0.519087	0.400155	0.920022	-0.303948
-0.517089	0.302575	0.814730	-0.400996
-0.469412	0.251077	0.721285	-0.478066
-0.410506	0.222630	0.633928	-0.524482
-0.351838	0.177168	0.529794	-0.536157
-0.270566	0.206126	0.471766	-0.515085
-0.178204	0.246386	0.425393	-0.467506
-0.109060	0.275059	0.379209	-0.401194
-0.091591	0.269353	0.356053	-0.323909
-0.131296	0.217986	0.355831	-0.244393
-0.136575	0.212512	0.349898	-0.173671
-0.118991	0.167087	0.286885	-0.122689
-0.101477	0.161821	0.264101	-0.096704
-0.101165	0.150865	0.252829	-0.092121
-0.055170	0.179928	0.230183	-0.099018
-0.055047	0.180319	0.241891	-0.106275
-0.072054	0.135026	0.207867	-0.106105
-0.088990	0.124180	0.208244	-0.097051
-0.077305	0.136221	0.208619	-0.083667
-0.099929	0.108240	0.208992	-0.072505
-0.093908	0.114636	0.209363	-0.067975
-0.110752	0.103876	0.209732	-0.070957
-0.121816	0.087449	0.210099	-0.079664
-0.098571	0.093932	0.187623	-0.091165
-0.069710	0.100389	0.170949	-0.102027
-0.092360	0.095399	0.182894	-0.108547
-0.057813	0.136113	0.194791	-0.108256
-0.051958	0.153818	0.206638	-0.101227
-0.034707	0.171452	0.201305	-0.089289
-0.046077	0.137620	0.184573	-0.074781
-0.057400	0.132478	0.190751	-0.060375
-0.034414	0.161620	0.196903	-0.048908
-0.011522	0.156380	0.168767	-0.041922
-0.011565	0.134031	0.146457	-0.038228
-0.074421	0.088933	0.164210	-0.035314
-0.154150	0.032599	0.187601	-0.033408
-0.119345	0.079282	0.199475	-0.037214
-0.090391	0.102934	0.194169	-0.051235
-0.044424	0.143620	0.188885	-0.073127
-0.038617	0.132747	0.172201	-0.093433
-0.089937	0.081947	0.167005	-0.102515
-0.072522	0.082748	0.161831	-0.097900
-0.043757	0.117808	0.162389	-0.084897
-0.037950	0.135594	0.174364	-0.070617
-0.094980	0.096204	0.186291	-0.059297
-0.134645	0.062686	0.192457	-0.053384
-0.111333	0.080700	0.187178	-0.055622
-0.019592	0.172874	0.193340	-0.066570
0.020382	0.207567	0.188056	-0.080317
-0.025464	0.156463	0.182794	-0.086220
-0.053990	0.116989	0.177552	-0.077657
-0.070978	0.111939	0.183753	-0.058352
-0.059345	0.124042	0.184217	-0.039102
-0.064889	0.124674	0.190390	-0.029259
-0.070410	0.113883	0.185116	-0.031471
-0.081618	0.103136	0.185574	-0.042474
-0.069938	0.109566	0.180319	-0.056786
-0.024044	0.161651	0.186506	-0.069218
-0.063992	0.139289	0.204088	-0.075654
-0.109485	0.099888	0.210177	-0.074752
-0.074847	0.106332	0.181979	-0.069788
-0.051771	0.118459	0.171027	-0.066092
-0.045920	0.141958	0.182960	-0.065803
-0.085775	0.096837	0.189134	-0.066997
-0.079783	0.091874	0.172441	-0.067595
-0.045263	0.126904	0.172947	-0.067657
0.011957	0.190342	0.179162	-0.067170
0.006129	0.207837	0.202481	-0.063567
-0.033937	0.173867	0.208573	-0.053750
-0.033866	0.134326	0.168958	-0.038613
-0.045216	0.129209	0.175187	-0.023729
-0.062229	0.118403	0.181390	-0.015309
-0.039199	0.153324	0.193277	-0.016282
-0.004843	0.199523	0.205116	-0.024818
-0.004889	0.205560	0.211195	-0.035032
-0.004935	0.183020	0.182987	-0.040274
0.017861	0.206254	0.189156	-0.037130
0.017722	0.223683	0.206720	-0.026462
-0.016679	0.183937	0.195660	-0.011891
-0.050938	0.115801	0.167513	0.001373
-0.022243	0.127890	0.150903	0.007801
0.006335	0.157060	0.157201	0.004818
0.029086	0.174690	0.146343	-0.004366
0.034612	0.209378	0.181212	-0.012398
0.011564	0.238214	0.221648	-0.013013
0.017162	0.238379	0.216234	-0.005212
0.051289	0.227122	0.176581	0.007183
0.079565	0.238752	0.159931	0.019871
0.050621	0.227492	0.177611	0.031381
0.033217	0.233409	0.195218	0.041803
0.038725	0.239300	0.201332	0.050015
0.067051	0.268009	0.207420	0.054136
0.038158	0.245205	0.207773	0.054053
0.043645	0.251046	0.208123	0.051614
0.077660	0.256862	0.179920	0.048864
0.082984	0.228392	0.146122	0.047693
0.111127	0.262851	0.152434	0.050228
0.104892	0.245775	0.141590	0.057994
0.092972	0.251609	0.159341	0.070520
0.075389	0.240288	0.165599	0.084717
0.097850	0.223302	0.131858	0.096065
0.103087	0.240647	0.132518	0.101518
0.102592	0.280761	0.173148	0.101529
0.113518	0.292159	0.179348	0.099123
0.073007	0.234984	0.156972	0.097252
0.044081	0.223726	0.174659	0.096435
0.055246	0.252485	0.197984	0.094282
0.066364	0.246864	0.186950	0.088098
0.083147	0.258396	0.175962	0.078259
0.088440	0.264169	0.170728	0.068516
0.088000	0.264207	0.176937	0.063235
0.070431	0.247114	0.177409	0.064342
0.098615	0.315744	0.217851	0.070345
0.069580	0.309857	0.240996	0.077919
0.080636	0.298283	0.218362	0.084027
0.080225	0.263914	0.184400	0.086909
0.068395	0.275367	0.207680	0.086356
0.045192	0.281062	0.236574	0.083159
0.022084	0.241050	0.213956	0.077719
0.039042	0.252594	0.214271	0.069612
0.033090	0.252669	0.220295	0.058925
-0.007100	0.207060	0.214872	0.047120
-0.069967	0.161637	0.232313	0.035195
-0.098313	0.127821	0.226840	0.021304
-0.092281	0.139826	0.232809	0.001883
-0.040589	0.214596	0.255883	-0.023850
-0.023371	0.214824	0.238890	-0.050731
-0.069037	0.152238	0.216256	-0.070182
-0.063122	0.158432	0.222265	-0.076988
-0.080072	0.153179	0.228248	-0.073187
-0.091242	0.142238	0.234206	-0.065583
-0.125206	0.102789	0.223008	-0.061129
-0.113348	0.109186	0.223276	-0.064175
-0.095826	0.115556	0.212121	-0.075126
-0.101217	0.127611	0.229563	-0.090230
-0.100874	0.139616	0.235512	-0.103769
-0.106242	0.111600	0.218594	-0.111618
-0.134429	0.100830	0.236007	-0.113322
-0.179630	0.078684	0.253347	-0.112094
-0.196092	0.062340	0.253485	-0.113450
-0.155382	0.091745	0.247911	-0.122064
-0.109127	0.115321	0.225227	-0.137557
-0.120163	0.098827	0.219767	-0.153342
-0.165416	0.053850	0.225748	-0.161564
-0.147667	0.077582	0.225994	-0.159850
-0.141411	0.078376	0.220528	-0.152268
-0.163731	0.033485	0.197953	-0.144619
-0.174537	0.028750	0.204021	-0.140795
-0.179587	0.058298	0.238615	-0.142469
-0.138932	0.121987	0.261646	-0.149152
-0.126994	0.116892	0.238899	-0.157651
-0.132235	0.088977	0.221954	-0.163025
-0.131742	0.095438	0.227920	-0.161746
-0.125540	0.107584	0.233860	-0.154056
-0.136494	0.091128	0.228354	-0.143221
-0.141690	0.080451	0.222869	-0.133280
-0.112603	0.104080	0.217407	-0.127152
-0.083633	0.127612	0.211966	-0.125011
-0.134726	0.093945	0.229388	-0.124233
-0.174187	0.077547	0.252448	-0.122653
-0.173513	0.089769	0.263991	-0.121912
-0.201392	0.033417	0.235514	-0.126085
-0.246285	-0.022704	0.218574	-0.137924
-0.199628	0.029903	0.230253	-0.157263
-0.078925	0.139399	0.219043	-0.179894
-0.032950	0.185633	0.213588	-0.195994
-0.084239	0.146022	0.230995	-0.193842
-0.106765	0.135124	0.236910	-0.169495
-0.129198	0.090010	0.219959	-0.132035
-0.145827	0.073633	0.220207	-0.097826
-0.162387	0.068743	0.226163	-0.080312
-0.224560	0.018192	0.243515	-0.084381
-0.217952	0.019242	0.237954	-0.107216
-0.159977	0.088812	0.255255	-0.141152
-0.096527	0.163808	0.255354	-0.174876
-0.039047	0.204235	0.244030	-0.195170
-0.107428	0.135999	0.244173	-0.192339
-0.112715	0.136567	0.250024	-0.166954
-0.095138	0.120002	0.215877	-0.130709
-0.083342	0.132056	0.216132	-0.098486
-0.071594	0.178323	0.250647	-0.079117
-0.054183	0.201559	0.256468	-0.072652
-0.099655	0.156175	0.256553	-0.073740
-0.099258	0.156659	0.256637	-0.077079
-0.081731	0.151431	0.233878	-0.080511
-0.115667	0.117673	0.234053	-0.084035
-0.098071	0.129736	0.228515	-0.087964
-0.080545	0.158880	0.234420	-0.092257
-0.120194	0.125091	0.246010	-0.096158
-0.136838	0.097152	0.234710	-0.099145
-0.119150	0.120719	0.240587	-0.102288
-0.095824	0.178453	0.274990	-0.106907
-0.095433	0.167425	0.257858	-0.112088
-0.077911	0.145022	0.223664	-0.114953
-0.043330	0.179814	0.223871	-0.112821
-0.048862	0.174491	0.224076	-0.104425
-0.065792	0.169189	0.229989	-0.090492
-0.059810	0.158198	0.218747	-0.074284
-0.065273	0.158673	0.218970	-0.060464
-0.042160	0.176276	0.213482	-0.052343
0.003699	0.233780	0.230856	-0.049675
-0.059126	0.176840	0.231027	-0.048930
-0.138823	0.085872	0.219776	-0.047376
-0.149669	0.069511	0.214280	-0.047667
-0.149048	0.076059	0.225937	-0.056100
-0.119877	0.122552	0.243255	-0.075595
-0.067982	0.168855	0.243371	-0.101394
-0.056272	0.174996	0.232064	-0.123117
-0.090292	0.135429	0.220802	-0.131218
-0.049937	0.164548	0.215296	-0.123189
-0.026878	0.193548	0.226943	-0.103889
-0.061016	0.153904	0.215700	-0.080647
-0.055041	0.154395	0.210212	-0.059747
-0.031959	0.183435	0.216167	-0.045517
-0.071785	0.155252	0.222096	-0.039361
-0.134288	0.087213	0.222290	-0.040452
-0.167982	0.059425	0.228192	-0.048756
-0.144433	0.077434	0.222648	-0.065623
-0.063876	0.158183	0.222837	-0.089779
-0.023621	0.215760	0.234444	-0.113594
-0.029212	0.198866	0.228872	-0.125623
-0.046201	0.182041	0.229032	-0.118622
-0.057409	0.165284	0.223480	-0.095297
-0.068571	0.148596	0.217950	-0.066392
-0.113948	0.126266	0.240993	-0.044060
-0.102035	0.166840	0.263941	-0.036376
-0.078749	0.178697	0.258241	-0.044665
-0.061268	0.173374	0.235433	-0.063156
-0.032437	0.185203	0.218427	-0.081772
-0.049406	0.191273	0.241463	-0.091346
-0.123409	0.117373	0.235851	-0.088690
-0.134293	0.089458	0.224551	-0.078894
-0.082318	0.107341	0.190455	-0.071697
-0.104789	0.062337	0.173629	-0.073423
-0.092905	0.126014	0.219684	-0.082845
-0.075358	0.160879	0.242709	-0.094231
-0.092145	0.132787	0.225666	-0.102018
-0.125992	0.110521	0.237244	-0.103778
-0.114017	0.139739	0.248772	-0.101386
-0.056407	0.163126	0.220281	-0.098742
-0.004743	0.203549	0.209036	-0.096879
-0.021814	0.192413	0.220677	-0.092121
-0.067367	0.152770	0.220849	-0.080514
-0.067049	0.170392	0.232440	-0.063569
-0.083863	0.130839	0.215431	-0.048147
-0.049214	0.154261	0.198490	-0.040844
-0.060389	0.137615	0.204460	-0.043129
-0.117200	0.092485	0.216114	-0.051649
-0.122384	0.116065	0.239140	-0.062703
-0.093284	0.145258	0.239230	-0.075009
-0.064302	0.180042	0.245028	-0.087549
-0.052569	0.180421	0.227960	-0.097021
-0.063725	0.140826	0.205251	-0.099330
-0.069124	0.124234	0.199765	-0.093216
-0.080210	0.136262	0.217141	-0.081744
-0.096960	0.136820	0.234446	-0.070501
-0.079378	0.131665	0.211706	-0.064458
-0.056158	0.143662	0.194769	-0.065262
-0.055873	0.155610	0.212162	-0.070302
-0.067009	0.156088	0.223773	-0.074824
-0.078098	0.139433	0.218204	-0.075694
-0.117693	0.088584	0.206947	-0.073564
-0.111442	0.117888	0.229996	-0.072137
-0.088085	0.141362	0.230109	-0.075098
-0.041981	0.170450	0.207380	-0.082466
-0.053168	0.165157	0.219004	-0.089660
-0.058598	0.171305	0.236290	-0.091060
-0.069716	0.160298	0.236372	-0.084796
-0.086498	0.120783	0.207902	-0.074069
-0.097499	0.104271	0.202389	-0.064657
-0.074193	0.139221	0.214029	-0.061273
-0.033850	0.168316	0.202778	-0.064558
-0.045065	0.157320	0.202993	-0.070408
-0.119047	0.100686	0.220338	-0.073565
-0.129911	0.089967	0.226190	-0.073225
-0.106467	0.119264	0.226306	-0.073872
-0.100249	0.131311	0.232131	-0.079771
-0.076924	0.160438	0.237931	-0.090181
-0.036563	0.212288	0.249416	-0.099924
-0.047760	0.201111	0.243723	-0.102929
-0.036069	0.189979	0.226630	-0.095904
0.004127	0.213154	0.209607	-0.080043
-0.030076	0.190551	0.221203	-0.059459
-0.092690	0.156619	0.244172	-0.039415
-0.120785	0.151378	0.272756	-0.026458
-0.154474	0.117606	0.266959	-0.027174
-0.113789	0.135366	0.249764	-0.044191
-0.056138	0.175894	0.232638	-0.072704
0.012698	0.244807	0.232712	-0.100639
-0.055796	0.182099	0.238495	-0.114207
-0.118298	0.125358	0.244253	-0.107357
-0.134860	0.125953	0.255696	-0.087400
-0.088539	0.177938	0.267091	-0.069440
-0.013856	0.246841	0.267017	-0.063727
-0.013712	0.218385	0.238390	-0.068182
-0.053540	0.172914	0.227011	-0.072785
-0.081784	0.150470	0.232808	-0.070308
-0.092781	0.150959	0.244290	-0.062186
-0.058049	0.197128	0.255724	-0.055111
-0.063430	0.174583	0.238557	-0.053868
-0.085920	0.146421	0.232881	-0.058140
-0.102606	0.135504	0.238647	-0.065059
-0.130643	0.107501	0.238679	-0.072928
-0.078620	0.153847	0.232998	-0.081787
-0.055360	0.171451	0.227339	-0.090878
-0.089298	0.143300	0.233123	-0.097095
-0.100255	0.149526	0.250303	-0.097698
-0.054062	0.195699	0.250280	-0.093428
-0.042320	0.201710	0.244546	-0.086855
-0.059177	0.184854	0.244544	-0.079210
-0.058833	0.173777	0.233120	-0.070758
-0.081331	0.145614	0.227451	-0.062783
-0.120867	0.111855	0.233226	-0.057944
-0.091716	0.146759	0.238976	-0.059123
-0.051262	0.187230	0.233280	-0.066934
-0.039525	0.187563	0.227606	-0.077484
-0.079229	0.142211	0.221954	-0.084286
-0.095927	0.137016	0.233455	-0.083842
-0.135397	0.126133	0.256328	-0.078881
-0.163284	0.081032	0.244845	-0.076255
-0.162503	0.081799	0.244827	-0.082268
-0.127461	0.116825	0.244809	-0.098557
-0.086852	0.140286	0.227658	-0.120260
-0.097800	0.152231	0.244838	-0.138150
-0.040179	0.192679	0.233395	-0.144004
-0.011345	0.210118	0.221997	-0.134520
-0.102545	0.136121	0.239196	-0.111892
-0.119136	0.102398	0.222062	-0.083964
-0.118527	0.097365	0.216417	-0.062457
-0.106499	0.120905	0.227925	-0.056413
-0.105939	0.138638	0.245096	-0.066388
-0.128222	0.104906	0.233642	-0.085485
-0.104729	0.122704	0.227945	-0.105007
-0.058490	0.186112	0.245111	-0.118524
-0.080964	0.169315	0.250785	-0.122383
-0.074793	0.169718	0.239303	-0.115948
-0.080066	0.158698	0.239288	-0.102366
-0.096738	0.142012	0.239271	-0.087355
-0.067658	0.165367	0.233542	-0.076275
-0.072958	0.165784	0.239257	-0.071522
-0.152470	0.091965	0.239236	-0.072402
-0.111737	0.126945	0.233504	-0.077849
-0.048329	0.196043	0.244924	-0.087094
-0.059414	0.213465	0.273428	-0.096707
-0.081873	0.190842	0.273261	-0.100994
-0.058557	0.196863	0.255963	-0.097065
-0.046756	0.225700	0.278706	-0.086885
-0.023582	0.248707	0.267092	-0.074188
-0.034765	0.243068	0.278366	-0.061460
-0.091583	0.186057	0.278171	-0.050241
-0.073934	0.192093	0.266554	-0.042975
-0.039225	0.238076	0.277825	-0.042258
-0.044629	0.221056	0.266206	-0.047485
-0.038590	0.192684	0.231793	-0.054290
0.001686	0.210110	0.214650	-0.057745
-0.026726	0.187492	0.214706	-0.054961
-0.032179	0.176387	0.209051	-0.046095
-0.031899	0.211009	0.243391	-0.034509
-0.008779	0.239778	0.249036	-0.024726
-0.008594	0.217035	0.220395	-0.019150
-0.036961	0.171543	0.209001	-0.017208
-0.036659	0.166210	0.203363	-0.017498
-0.002097	0.195159	0.197747	-0.019355
-0.030489	0.166886	0.203573	-0.021976
-0.064474	0.155860	0.220796	-0.024279
-0.029795	0.190560	0.220815	-0.026474
-0.006679	0.202277	0.203702	-0.029459
-0.023629	0.173973	0.203789	-0.032403
-0.057640	0.145784	0.203874	-0.033424
-0.091511	0.106290	0.198248	-0.032924
-0.016746	0.169743	0.186933	-0.033979
0.000610	0.187253	0.192795	-0.038075
-0.056339	0.170429	0.227183	-0.042383
-0.095922	0.142253	0.238587	-0.043785
-0.106791	0.114191	0.221392	-0.043979
-0.083352	0.126217	0.204266	-0.047900
-0.077139	0.121063	0.198630	-0.057960
-0.070951	0.133060	0.198726	-0.071439
-0.036235	0.184981	0.221661	-0.082743
-0.098736	0.133902	0.233081	-0.087298
-0.103877	0.123005	0.227322	-0.084771
-0.040472	0.174966	0.215874	-0.079183
-0.023008	0.186741	0.210183	-0.074267
-0.028457	0.187046	0.215934	-0.069542
-0.079565	0.141667	0.221661	-0.062714
-0.073360	0.136446	0.210231	-0.054462
-0.055758	0.148377	0.204558	-0.048618
-0.072490	0.137417	0.204617	-0.048099
-0.077731	0.120792	0.198964	-0.052552
-0.082950	0.104235	0.181913	-0.059776
-0.099567	0.076325	0.176351	-0.067757
-0.116115	0.082791	0.199362	-0.075589
-0.144015	0.083521	0.227988	-0.083725
-0.108985	0.101379	0.210814	-0.093270
-0.062676	0.136295	0.193708	-0.103827
-0.050819	0.142516	0.193802	-0.111715
-0.078981	0.120160	0.199605	-0.111986
-0.032793	0.166419	0.199673	-0.102880
-0.026765	0.183936	0.205450	-0.086954
-0.049313	0.172829	0.222622	-0.068432
-0.071768	0.150347	0.222592	-0.051595
-0.059869	0.162218	0.222560	-0.040602
-0.065148	0.128358	0.193976	-0.037967
-0.093245	0.071795	0.165508	-0.043073
-0.024151	0.123960	0.142865	-0.052775
0.010398	0.130228	0.114605	-0.062089
0.010545	0.125050	0.115011	-0.064758
-0.000730	0.131314	0.132546	-0.056455
-0.034799	0.143262	0.172850	-0.038685
-0.017335	0.217974	0.235829	-0.018581
0.062872	0.343772	0.281418	-0.003613
0.102777	0.411950	0.303977	0.004856
0.136808	0.474135	0.337862	0.012841
0.193541	0.604586	0.405868	0.028555
0.284301	0.780182	0.490723	0.057178
0.300454	0.869397	0.569516	0.099800
0.350800	0.946820	0.596590	0.153921
0.452331	1.075312	0.623548	0.214352
0.462076	1.123325	0.667522	0.276004
0.334731	1.074057	0.739863	0.334666
0.242167	1.122058	0.880424	0.382639
0.252767	1.318321	1.060376	0.407332
0.240479	1.490930	1.251002	0.399522
0.233951	1.520061	1.286659	0.362376
0.267420	1.440566	1.167981	0.310632
0.192254	1.218627	1.026938	0.262049
-0.008232	0.923353	0.932148	0.226919
-0.173635	0.686385	0.860579	0.199955
-0.315517	0.553168	0.869242	0.161828
-0.388291	0.540409	0.923544	0.092334
-0.460763	0.539120	0.994747	-0.015160
-0.527224	0.526411	1.054230	-0.149484
-0.564856	0.479489	1.039227	-0.288913
-0.505254	0.404204	0.910070	-0.411652
-0.457312	0.312094	0.770015	-0.501584
-0.403852	0.243200	0.647658	-0.549576
-0.293504	0.243111	0.537217	-0.553950
-0.252128	0.208759	0.461487	-0.519869
-0.228051	0.191678	0.420325	-0.457664
-0.135546	0.237479	0.367908	-0.380979
-0.026288	0.288802	0.315703	-0.302551
-0.060234	0.254258	0.309392	-0.229367
-0.076910	0.231274	0.308814	-0.163941
-0.042123	0.231225	0.273975	-0.109510
-0.018899	0.231174	0.250697	-0.070090
-0.018610	0.196860	0.216092	-0.046218
-0.035453	0.162687	0.198758	-0.034128
-0.057937	0.140072	0.198624	-0.029220
-0.046066	0.128971	0.175649	-0.028885
-0.039953	0.152177	0.192738	-0.032038
-0.045285	0.163866	0.209756	-0.037237
-0.056304	0.141245	0.198151	-0.042473
-0.044436	0.124426	0.163751	-0.046392
-0.032617	0.124806	0.158043	-0.048604
-0.015134	0.148026	0.163777	-0.048753
0.002277	0.165440	0.163776	-0.045955
0.025328	0.199913	0.175195	-0.039154
0.025443	0.205692	0.180856	-0.027849
-0.014414	0.165763	0.175071	-0.013138
-0.054107	0.091736	0.152178	0.001134
-0.047955	0.103666	0.152219	0.008998
0.038118	0.189781	0.152258	0.006552
0.066735	0.201309	0.135166	-0.003034
0.032421	0.178526	0.146694	-0.010361
0.055351	0.201518	0.146753	-0.007466
0.049635	0.184443	0.129680	0.006278
-0.018871	0.110333	0.129807	0.025072
-0.041412	0.099341	0.135643	0.040126
-0.006758	0.128365	0.135743	0.043451
-0.017928	0.111587	0.130133	0.032690
-0.057603	0.066327	0.124544	0.012556
-0.034301	0.106906	0.141818	-0.009576
-0.028225	0.147319	0.170441	-0.028130
0.012089	0.193276	0.181815	-0.039737
0.080790	0.244754	0.170300	-0.041849
0.074975	0.244627	0.164541	-0.032191
0.057762	0.221658	0.158804	-0.010548
0.029200	0.170230	0.141669	0.018405
0.035017	0.153274	0.118893	0.045607
0.052230	0.176358	0.124761	0.062620
0.052242	0.199348	0.147735	0.066702
0.040834	0.182269	0.142062	0.061311
0.058024	0.193812	0.130701	0.052477
0.063722	0.193885	0.130807	0.045306
0.040846	0.199667	0.159462	0.042574
0.035194	0.176873	0.142317	0.044138
0.018145	0.137041	0.125241	0.047197
-0.027385	0.120212	0.148206	0.047802
-0.038467	0.114873	0.153944	0.042396
0.041863	0.178079	0.142528	0.029671
0.076181	0.229604	0.153998	0.013411
0.076097	0.229524	0.154000	0.002328
0.110274	0.252284	0.142579	0.004406
0.104339	0.240688	0.136915	0.021440
0.115559	0.263400	0.148404	0.048745
0.103890	0.251754	0.148424	0.078353
0.080849	0.228735	0.148443	0.102511
0.080743	0.234360	0.154172	0.115984
0.069216	0.228540	0.159875	0.117197
0.080578	0.222742	0.137003	0.108411
0.086182	0.228388	0.137064	0.094685
0.114605	0.262560	0.142834	0.082007
0.120069	0.262329	0.137159	0.075447
0.079828	0.216415	0.137217	0.077308
0.056882	0.182108	0.131563	0.085393
0.074003	0.205044	0.131642	0.093655
0.182418	0.319250	0.137429	0.097134
0.199023	0.313069	0.114641	0.097601
0.124193	0.215546	0.091944	0.102265
0.095352	0.215497	0.120733	0.114948
0.112311	0.243999	0.132273	0.130712
0.134911	0.260961	0.120922	0.141038
0.163127	0.294983	0.132459	0.142254
0.156965	0.311733	0.155368	0.137809
0.139407	0.277020	0.143920	0.133958
0.104789	0.236736	0.132518	0.134084
0.104574	0.236589	0.126872	0.136488
0.201435	0.333515	0.132668	0.137479
0.206533	0.355809	0.149861	0.136983
0.211608	0.355167	0.149851	0.139812
0.228082	0.354525	0.121288	0.150636
0.267328	0.359594	0.092842	0.169772
0.237888	0.336088	0.098773	0.193980
0.242829	0.364069	0.116100	0.218572
0.247748	0.369091	0.121934	0.238679
0.241224	0.356959	0.116323	0.251014
0.194753	0.333454	0.133575	0.254899
0.228416	0.361435	0.133625	0.251288
0.256228	0.389300	0.133673	0.242427
0.232533	0.365654	0.133720	0.232564
0.231774	0.353523	0.122345	0.226271
0.236727	0.341440	0.105306	0.225305
0.258789	0.369376	0.116887	0.228404
0.275048	0.391484	0.117000	0.233788
0.285528	0.402079	0.117111	0.240893
0.295964	0.406916	0.105800	0.250043
0.283513	0.383180	0.100244	0.261166
0.299663	0.393799	0.094711	0.273009
0.304324	0.410083	0.100620	0.283686
0.274702	0.392035	0.117925	0.291769
0.210937	0.328376	0.118028	0.295891
0.233087	0.356340	0.118129	0.293626
0.277986	0.395607	0.118228	0.283362
0.294147	0.406159	0.112616	0.268145
0.293109	0.416665	0.124157	0.255439
0.234970	0.381443	0.141361	0.251434
0.194198	0.317810	0.124230	0.255497
0.187854	0.305828	0.118590	0.260215
0.175824	0.311024	0.135813	0.257148
0.163842	0.321907	0.158674	0.242820
0.191881	0.361295	0.170020	0.220114
0.231224	0.406229	0.175608	0.196231
0.213301	0.376742	0.164041	0.179530
0.161188	0.301690	0.146809	0.175039
0.137840	0.284047	0.146778	0.180470
0.137427	0.277894	0.146746	0.187387
0.119884	0.260345	0.141002	0.187404
0.090992	0.242865	0.152412	0.177139
0.062217	0.231165	0.169484	0.158044
0.039271	0.225223	0.186485	0.133479
0.067811	0.264985	0.197704	0.106911
0.084813	0.258900	0.180324	0.082265
0.038932	0.195735	0.163014	0.063907
0.027501	0.201352	0.174325	0.054004
-0.001014	0.155551	0.157037	0.050159
0.004850	0.172750	0.168370	0.047030
0.062083	0.235560	0.173944	0.040734
0.084819	0.246719	0.156653	0.032431
0.067489	0.217857	0.150853	0.027615
-0.001162	0.149141	0.150785	0.030463
-0.052401	0.074994	0.127875	0.038274
-0.069168	0.075385	0.145030	0.042027
0.045472	0.229953	0.184954	0.033835
0.039726	0.223997	0.179032	0.015166
-0.000258	0.149540	0.156001	-0.003567
-0.034368	0.109649	0.138773	-0.012958
-0.034076	0.115604	0.150166	-0.012555
-0.039495	0.110112	0.150091	-0.008851
0.017923	0.138905	0.121463	-0.008027
0.046553	0.167579	0.121503	-0.010742
-0.010588	0.104769	0.110122	-0.012598
-0.050364	0.076477	0.133047	-0.010066
-0.027162	0.105405	0.133037	-0.005279
-0.015476	0.099951	0.110184	-0.003429
-0.049520	0.077389	0.127396	-0.007077
-0.077713	0.060628	0.138827	-0.015275
-0.105790	0.038226	0.144499	-0.026740
-0.093778	0.044467	0.138726	-0.041346
-0.081815	0.050683	0.127265	-0.058480
-0.035637	0.074004	0.110139	-0.075094
0.010351	0.114360	0.110214	-0.085696
-0.029503	0.097447	0.133129	-0.084845
-0.052062	0.074892	0.127397	-0.071528
-0.023135	0.098112	0.121688	-0.051379
-0.034299	0.092685	0.127421	-0.032935
-0.039706	0.081569	0.121709	-0.021925
-0.085062	0.036236	0.116020	-0.019782
-0.095969	0.013931	0.110353	-0.025802
-0.083990	0.031689	0.110419	-0.038655
-0.112031	0.015112	0.121904	-0.055923
-0.139955	-0.012817	0.133341	-0.074344
-0.133502	-0.006369	0.127599	-0.091646
-0.064261	0.057156	0.116169	-0.106607
-0.046695	0.080448	0.121916	-0.116630
-0.109144	0.023700	0.133349	-0.117871
-0.114234	0.018577	0.133313	-0.109885
-0.045067	0.081999	0.121855	-0.097690
-0.038996	0.088058	0.127574	-0.086690
-0.055791	0.076961	0.133269	-0.077890
-0.049675	0.083039	0.127518	-0.069713
-0.043583	0.077672	0.121790	-0.061607
-0.060357	0.060906	0.116085	-0.054444
-0.094192	0.044208	0.138953	-0.049710
-0.139308	-0.006683	0.133175	-0.049644
-0.098583	0.028289	0.127419	-0.056735
-0.075155	0.051697	0.127396	-0.070928
-0.074663	0.046458	0.121662	-0.087466
-0.051330	0.064081	0.115950	-0.099219
-0.045224	0.087342	0.133102	-0.101196
-0.056272	0.059115	0.115920	-0.092887
-0.044434	0.042423	0.087388	-0.077885
-0.038353	0.065773	0.104653	-0.061654
-0.049428	0.083316	0.133268	-0.048648
-0.083298	0.032262	0.116082	-0.041179
-0.117028	-0.007161	0.110386	-0.040497
-0.133487	-0.017871	0.116133	-0.047769
-0.161298	-0.051378	0.110435	-0.063440
-0.114760	-0.016223	0.099048	-0.085778
-0.028439	0.053050	0.081997	-0.109396
0.011847	0.104908	0.093567	-0.124901
0.034837	0.145133	0.110799	-0.122439
0.017761	0.133799	0.116538	-0.098195
-0.050638	0.059697	0.105123	-0.058479
-0.095915	0.020160	0.116594	-0.018142
-0.066771	0.043599	0.110886	0.006443
-0.003484	0.106914	0.116621	0.007108
0.013862	0.124287	0.110911	-0.010501
-0.031676	0.090194	0.116644	-0.031576
-0.065606	0.084793	0.150904	-0.043834
-0.053714	0.085123	0.139340	-0.045217
-0.007609	0.131134	0.139242	-0.041158
0.015468	0.154115	0.139144	-0.036525
0.032739	0.159869	0.121914	-0.031354
-0.024294	0.108496	0.127595	-0.023292
-0.063962	0.063043	0.127540	-0.012772
-0.092046	0.023486	0.116065	-0.005144
-0.045780	0.069746	0.116056	-0.006956
0.011718	0.121526	0.110335	-0.019373
0.046140	0.138832	0.093216	-0.035165
0.051868	0.161776	0.110429	-0.042916
0.023312	0.138942	0.116149	-0.035213
-0.005127	0.110491	0.116135	-0.014010
-0.004898	0.116417	0.121829	0.010807
0.001040	0.105188	0.104658	0.028184
0.001245	0.099714	0.098977	0.032548
-0.038523	0.065711	0.104739	0.025295
-0.038156	0.060398	0.099056	0.011271
-0.020658	0.066527	0.087685	-0.004884
-0.014652	0.084051	0.099200	-0.019387
-0.048642	0.061531	0.110668	-0.029254
-0.036810	0.067655	0.104957	-0.033669
-0.007895	0.096594	0.104978	-0.034246
-0.030490	0.085442	0.116419	-0.032862
-0.024441	0.097176	0.122102	-0.030394
-0.018416	0.097442	0.116339	-0.027490
-0.063808	0.040602	0.104889	-0.025137
-0.057620	0.041098	0.099195	-0.024837
-0.040037	0.064434	0.104944	-0.028114
0.011738	0.127645	0.116378	-0.034399
0.006197	0.116363	0.104924	-0.039691
-0.005031	0.082285	0.087805	-0.039056
-0.016212	0.065477	0.082176	-0.031011
0.006914	0.071579	0.070859	-0.018778
0.001395	0.071945	0.071008	-0.007190
-0.072625	0.015206	0.088287	0.000238
-0.083527	0.010093	0.094073	0.000825
-0.071543	0.022132	0.094125	-0.007783
-0.036765	0.056962	0.094175	-0.024963
-0.024971	0.085939	0.105645	-0.045043
-0.007514	0.097667	0.105646	-0.059722
-0.030100	0.057952	0.088516	-0.063104
-0.024041	0.041242	0.065744	-0.055109
-0.040848	0.024599	0.065906	-0.040963
-0.057585	0.036577	0.094618	-0.027827
-0.039992	0.065636	0.111791	-0.021249
-0.033890	0.060314	0.094631	-0.022838
-0.039233	0.032172	0.071830	-0.029948
-0.027422	0.015566	0.043411	-0.037910
-0.015659	0.027580	0.043659	-0.042811
-0.038206	0.022414	0.061037	-0.042859
-0.100632	-0.022703	0.078343	-0.039222
-0.082857	0.018019	0.101288	-0.036354
-0.076574	0.024313	0.095586	-0.039314
-0.058895	0.002030	0.061355	-0.049284
-0.046998	0.008389	0.055815	-0.062287
-0.080831	-0.013829	0.067428	-0.072448
-0.063132	0.009727	0.073283	-0.076403
-0.096898	-0.001075	0.096244	-0.075061
-0.124813	-0.034674	0.090558	-0.072319
-0.084089	-0.011032	0.073474	-0.072617
-0.054951	0.035355	0.090720	-0.077720
-0.025932	0.041580	0.067923	-0.084461
-0.037004	0.030648	0.068060	-0.086737
-0.053739	0.019761	0.079617	-0.080620
-0.041854	0.026050	0.068284	-0.067574
-0.047147	0.015181	0.062707	-0.052911
-0.063839	0.004358	0.062862	-0.041878
-0.046200	0.022130	0.068726	-0.037255
-0.045762	0.028409	0.074566	-0.038825
-0.079588	0.006111	0.086091	-0.044109
-0.113274	-0.033227	0.080437	-0.050808
-0.084008	-0.003879	0.080516	-0.058761
-0.020598	0.071031	0.092014	-0.068074
0.025421	0.117082	0.092043	-0.075421
0.019860	0.105841	0.086361	-0.074292
-0.054203	0.043253	0.092122	-0.060748
-0.082278	-0.001949	0.080728	-0.039122
-0.058845	0.015848	0.069379	-0.020579
-0.041217	0.039283	0.075207	-0.014587
-0.035081	0.051201	0.086721	-0.021948
-0.028970	0.057360	0.086766	-0.035774
-0.011462	0.063493	0.069679	-0.047405
-0.005446	0.069601	0.069792	-0.051109
-0.028006	0.041422	0.069903	-0.045748
-0.039053	0.019068	0.058593	-0.034584
-0.044343	0.031067	0.070170	-0.023509
0.007493	0.088700	0.081699	-0.017472
0.030565	0.117545	0.087469	-0.016848
0.024991	0.117719	0.087504	-0.017194
0.025150	0.106471	0.076118	-0.013379
-0.014663	0.066717	0.081908	-0.004140
-0.031471	0.061387	0.093384	0.006801
-0.031079	0.073210	0.099102	0.013316
-0.053530	0.062143	0.116216	0.011019
-0.053046	0.051120	0.104707	-0.000320
-0.018301	0.057274	0.076113	-0.017158
0.004881	0.074822	0.070476	-0.033511
-0.000583	0.069457	0.064862	-0.042931
-0.011734	0.069824	0.076401	-0.041823
0.005712	0.087320	0.076472	-0.031679
0.017377	0.104744	0.087961	-0.017460
0.006153	0.082123	0.076562	-0.003942
0.034948	0.110988	0.076629	0.006314
0.023653	0.111182	0.088116	0.013028
0.000983	0.071402	0.065292	0.017188
-0.027304	0.020364	0.053982	0.019149
-0.044053	0.020928	0.065559	0.017493
-0.009340	0.067172	0.071377	0.010484
0.008100	0.078964	0.071461	-0.000972
0.025469	0.079287	0.054412	-0.012266
0.002795	0.056767	0.054563	-0.017812
-0.008365	0.062891	0.077554	-0.015319
0.049044	0.126092	0.077609	-0.007060
0.054826	0.109089	0.054822	0.003389
0.009191	0.063603	0.054969	0.014223
0.003716	0.081117	0.077955	0.024103
-0.007447	0.081428	0.089426	0.030221
-0.024274	0.058895	0.083718	0.029712
-0.029611	0.065006	0.095163	0.021842
-0.012084	0.059671	0.072298	0.008496
-0.028890	0.042937	0.078078	-0.006515
0.022897	0.100506	0.078123	-0.018806
0.051630	0.112155	0.061036	-0.024486
0.017433	0.089494	0.072570	-0.020900
-0.022334	0.049794	0.072635	-0.008816
0.006586	0.073070	0.066988	0.006100
0.023967	0.124802	0.095626	0.016785
0.081249	0.187742	0.101304	0.020688
0.092614	0.210450	0.118379	0.021685
0.115353	0.221643	0.106830	0.026593
0.137998	0.232789	0.101039	0.040097
0.103447	0.215335	0.112400	0.062032
0.086167	0.203662	0.118004	0.087415
0.086089	0.220586	0.135004	0.108545
0.103141	0.248860	0.140512	0.119211
0.125834	0.254175	0.123155	0.118632
0.119882	0.202363	0.083027	0.111662
0.108243	0.167893	0.060193	0.104974
0.090940	0.156404	0.066004	0.102464
0.090840	0.179222	0.088920	0.103569
0.130711	0.219077	0.088901	0.105430
0.124736	0.190243	0.066039	0.106502
0.067392	0.144395	0.077532	0.107358
0.067386	0.150126	0.083267	0.107844
0.078800	0.167253	0.088977	0.105723
0.078747	0.172888	0.088953	0.099377
0.004460	0.075713	0.071796	0.089634
-0.018130	0.036039	0.048999	0.077403
0.056448	0.105023	0.043426	0.062096
0.113590	0.173724	0.060715	0.045200
0.101974	0.156487	0.055092	0.033267
0.010460	0.059375	0.049492	0.033047
0.027817	0.076867	0.049623	0.043504
0.067945	0.139969	0.072595	0.055995
0.022254	0.105737	0.084051	0.062580
-0.011830	0.071643	0.078329	0.060852
-0.028642	0.066241	0.095470	0.051481
-0.062516	0.032309	0.101119	0.035398
-0.033437	0.067039	0.101034	0.014053
0.012655	0.095916	0.089527	-0.009033
0.012875	0.084702	0.072356	-0.027668
0.041647	0.113506	0.072385	-0.035387
0.036039	0.085087	0.055282	-0.029394
-0.038070	0.011102	0.049670	-0.012699
-0.089033	-0.034029	0.055500	0.005916
-0.111235	-0.044712	0.061305	0.014748
-0.081952	-0.009669	0.072797	0.005562
-0.058497	0.008100	0.067109	-0.020478
-0.018008	0.048638	0.061444	-0.052754
-0.034786	0.037616	0.072932	-0.077399
-0.028654	0.032350	0.067241	-0.085307
-0.068229	-0.007157	0.061572	-0.076618
-0.079089	-0.023661	0.055926	-0.059482
-0.112745	-0.040097	0.073144	-0.044970
-0.129131	-0.045044	0.084580	-0.041655
-0.122606	-0.078522	0.038865	-0.052411
-0.070425	-0.026208	0.039019	-0.073613
-0.024167	0.043024	0.067723	-0.096166
-0.058042	0.032027	0.090598	-0.109283
-0.040384	0.049626	0.090538	-0.106721
-0.068481	0.015761	0.079056	-0.090614
-0.085041	-0.029387	0.061910	-0.069475
-0.078690	-0.028667	0.050543	-0.052978
-0.049524	0.006312	0.056353	-0.046933
-0.054737	-0.004534	0.045008	-0.050624
-0.031377	-0.003915	0.027998	-0.058350
0.009018	0.036674	0.028188	-0.063371
0.026408	0.048544	0.028377	-0.060612
0.020885	0.026104	0.005723	-0.047956
0.021095	0.032307	0.011714	-0.027281
0.044146	0.101298	0.057651	-0.003818
0.055682	0.170006	0.109110	0.016999
0.067171	0.232720	0.166067	0.032553
0.118585	0.335148	0.217079	0.043684
0.169787	0.442864	0.267879	0.053987
0.215069	0.550135	0.335600	0.068707
0.254453	0.656962	0.408751	0.092561
0.293674	0.751926	0.458757	0.127254
0.304181	0.823653	0.514264	0.170565
0.388877	0.952182	0.563829	0.217633
0.438961	1.063046	0.624607	0.264162
0.397471	1.082082	0.685129	0.308534
0.333308	1.129583	0.796791	0.349132
0.257984	1.228272	0.970802	0.380007
0.314304	1.440753	1.126960	0.392337
0.290447	1.509593	1.213945	0.382030
0.255264	1.412540	1.152095	0.354426
0.243066	1.235928	0.987702	0.320165
0.122419	0.980084	0.852526	0.287462
0.030818	0.816646	0.786419	0.257179
-0.083249	0.676711	0.760549	0.222504
-0.253951	0.560184	0.809012	0.173037
-0.361137	0.512655	0.874399	0.100008
-0.399358	0.499577	0.899539	0.000634
-0.437418	0.469417	0.901727	-0.118256
-0.383953	0.427957	0.806822	-0.240193
-0.313573	0.375242	0.689458	-0.343957
-0.294870	0.282767	0.578278	-0.410664
-0.259111	0.213510	0.473259	-0.430961
-0.154972	0.230189	0.385796	-0.408462
-0.125491	0.189695	0.315819	-0.355814
-0.118971	0.143655	0.257545	-0.287971
-0.078215	0.143484	0.222349	-0.218700
0.002348	0.194706	0.198716	-0.158269
0.036899	0.200033	0.163756	-0.110216
0.065598	0.205337	0.140358	-0.071225
0.031365	0.176356	0.151317	-0.036045
0.031535	0.153201	0.116546	-0.003059
0.088808	0.170113	0.081916	0.024981
0.094453	0.158402	0.064557	0.045430
0.060102	0.118186	0.058689	0.059080
0.014471	0.066712	0.052844	0.067803
-0.019552	0.032580	0.058443	0.070755
-0.019174	0.038560	0.058307	0.064838
-0.018796	0.021673	0.041040	0.048662
0.010133	0.050538	0.035263	0.025495
0.073205	0.130676	0.058061	0.002916
0.141728	0.170513	0.029372	-0.009524
0.158578	0.164503	0.006509	-0.003616
0.123965	0.135674	0.018002	0.023088
0.089492	0.106962	0.018025	0.063848
0.089423	0.089788	0.000918	0.104587
0.112195	0.118365	0.006721	0.131605
0.146293	0.169665	0.023920	0.139608
0.145990	0.169361	0.023917	0.133655
0.111424	0.134795	0.023913	0.123870
0.048449	0.077527	0.035329	0.117309
0.031413	0.077597	0.046698	0.113424
0.031579	0.066244	0.035177	0.106551
0.026034	0.037807	0.012283	0.092350
0.071904	0.072299	0.000902	0.071987
0.129007	0.135200	0.000988	0.052007
0.100220	0.106478	0.006783	0.041162
0.100103	0.106423	0.012553	0.044932
0.105696	0.123499	0.018300	0.061416
0.134107	0.140504	0.006891	0.083249
0.111008	0.100334	-0.010182	0.103149
0.076582	0.071748	-0.010055	0.116798
0.116531	0.111803	-0.004218	0.122286
0.156316	0.151692	-0.004116	0.120385
0.173096	0.179996	0.001695	0.115824
0.144124	0.162500	0.018903	0.115210
0.126690	0.133653	0.007487	0.121801
0.086485	0.087792	-0.003882	0.132599
0.097838	0.093511	-0.003784	0.140624
0.126274	0.133467	0.007733	0.140340
0.108911	0.116155	0.002071	0.131814
0.120170	0.127464	0.007853	0.119961
0.057149	0.087333	0.030741	0.109909
0.034357	0.053076	0.019272	0.102853
0.085893	0.093193	0.002140	0.096013
0.131508	0.127433	-0.003502	0.087375
0.199776	0.207215	0.008009	0.080303
0.216370	0.218145	0.002341	0.082409
0.204343	0.223317	0.019538	0.099547
0.146682	0.165652	0.019532	0.130050
0.123517	0.119643	-0.003316	0.163734
0.134709	0.130924	-0.003229	0.187259
0.100172	0.119316	0.013987	0.192145
0.117169	0.130595	0.008291	0.178784
0.156937	0.147538	-0.008803	0.154760
0.162278	0.158699	-0.002986	0.131005
0.156177	0.175524	0.014227	0.117207
0.138679	0.129464	-0.008603	0.117203
0.109831	0.083592	-0.019920	0.127396
0.132493	0.134981	0.003071	0.139652
0.166483	0.169029	0.003126	0.146978
0.194622	0.185804	-0.013951	0.148205
0.199803	0.179667	-0.019538	0.147867
0.222092	0.207815	-0.013681	0.151793
0.192896	0.195874	0.003571	0.162708
0.180949	0.195401	0.009332	0.178556
0.174761	0.189217	0.015068	0.193716
0.168596	0.177347	0.015070	0.202426
0.185297	0.194075	0.009360	0.202206
0.179087	0.199312	0.015094	0.194923
0.178612	0.181684	0.003673	0.185129
0.200978	0.186968	-0.007702	0.177278
0.234673	0.209359	-0.024741	0.174349
0.228255	0.197395	-0.030291	0.178042
0.256124	0.236871	-0.018687	0.188605
0.249615	0.236210	-0.018551	0.204359
0.254552	0.241260	-0.018417	0.222157
0.236625	0.229157	-0.006863	0.238371
0.241612	0.217100	-0.023908	0.249817
0.246576	0.210801	-0.035174	0.254822
0.262939	0.227368	-0.029263	0.254159
0.267812	0.226733	-0.034797	0.250890
0.204140	0.163285	-0.040308	0.248321
0.169278	0.140068	-0.028667	0.246751
0.243055	0.225440	-0.022784	0.242983
0.253713	0.230516	-0.016925	0.235063
0.264327	0.241279	-0.022512	0.226288
0.349129	0.314809	-0.033786	0.223110
0.382188	0.353773	-0.033594	0.231304
0.289482	0.272658	-0.021982	0.253239
0.231416	0.209003	-0.021839	0.284026
0.247819	0.219841	-0.027408	0.310920
0.349809	0.321997	-0.027243	0.321872
0.371433	0.343788	-0.027080	0.316362
0.324443	0.279831	-0.044049	0.305566
0.294773	0.216134	-0.072369	0.301094
0.293775	0.232639	-0.060601	0.305387
0.309909	0.271917	-0.037460	0.312946
0.297423	0.271058	-0.020125	0.317596
0.290697	0.293041	0.002849	0.316886
0.244023	0.252119	0.014307	0.311339
0.248932	0.251333	-0.002833	0.301895
0.270950	0.279100	0.002937	0.289278
0.258613	0.261068	0.002972	0.275419
0.252036	0.248818	-0.002703	0.263505
0.262615	0.253746	-0.008356	0.255878
0.267438	0.247231	-0.013986	0.252911
0.249398	0.240740	-0.002463	0.253643
0.248561	0.245694	0.003302	0.256272
0.242015	0.262046	0.014753	0.258477
0.206943	0.232645	0.026157	0.258153
0.194854	0.231915	0.037513	0.253735
0.159972	0.174082	0.014559	0.244105
0.130942	0.127904	-0.002590	0.228745
0.130582	0.144728	0.008881	0.208039
0.153064	0.178612	0.026015	0.183974
0.072666	0.109570	0.031657	0.160220
0.032570	0.080781	0.048696	0.139381
0.066873	0.114923	0.048534	0.120380
0.112455	0.137503	0.019819	0.101298
0.100746	0.091465	-0.008779	0.084120
0.037692	0.028484	-0.008709	0.073367
0.026289	0.028573	0.002781	0.069981
0.060615	0.057213	-0.002908	0.069507
0.071959	0.074314	0.002847	0.067153
0.111808	0.108475	-0.002843	0.062761
0.071549	0.085392	0.014331	0.060114
0.014323	0.039560	0.025723	0.061954
0.014434	0.005337	-0.014325	0.065868
0.020256	-0.011616	-0.031368	0.065938
0.048895	0.028603	-0.019790	0.058646
-0.002528	0.000133	0.003160	0.045942
-0.048029	-0.028221	0.020306	0.032040
-0.047661	-0.027907	0.020249	0.018495
0.009809	0.035219	0.020192	0.004310
0.004230	0.012431	0.008714	-0.009709
-0.018456	-0.015975	0.002992	-0.019774
-0.029629	-0.044265	-0.014127	-0.023158
-0.012203	-0.038177	-0.025467	-0.021200
0.027992	-0.003562	-0.031050	-0.017186
0.005209	0.002359	-0.008059	-0.012702
-0.006059	-0.014586	-0.008004	-0.007468
0.028401	0.025641	-0.002240	-0.001632
0.017038	0.025731	0.003500	0.003936
-0.011409	-0.002732	0.009216	0.008657
0.017363	0.031734	0.014908	0.011879
-0.005375	-0.008175	-0.002266	0.012787
-0.033730	-0.047921	-0.013660	0.011070
0.012266	-0.013271	-0.025007	0.006811
0.046652	0.038369	-0.007757	0.001180
0.006664	0.009851	-0.001999	-0.002574
-0.073133	-0.081363	-0.001975	-0.002009
-0.089788	-0.075128	0.009469	-0.000069
-0.083533	-0.063209	0.020865	-0.003908
-0.020199	0.005766	0.020793	-0.017766
0.060006	0.057326	0.003589	-0.037261
0.019966	0.017309	-0.002124	-0.051003
0.020062	0.017427	-0.002104	-0.049177
0.008738	0.006124	-0.002085	-0.031399
0.020301	0.011998	-0.007777	-0.006104
-0.002445	0.000716	0.003685	0.016263
-0.007967	0.012321	0.015100	0.028762
0.026506	0.046720	0.020756	0.029745
0.032287	0.035294	0.003547	0.022647
0.003782	-0.004638	-0.013592	0.013841
-0.013186	-0.027275	-0.019241	0.008236
-0.041504	-0.055530	-0.007736	0.006060
-0.001182	0.001986	0.009431	0.004061
0.004714	0.030713	0.026528	-0.000229
-0.029387	-0.003491	0.026422	-0.005997
-0.017665	-0.020424	-0.007946	-0.011048
0.022560	0.025525	-0.002201	-0.014225
0.022649	0.025603	0.003519	-0.014698
-0.022945	-0.002872	0.014925	-0.011470
0.034434	0.054424	0.014864	-0.005139
0.040185	0.042961	0.003381	0.002253
0.000230	-0.025559	-0.025187	0.009466
-0.039562	-0.048116	-0.007955	0.015489
-0.022086	-0.024899	-0.002215	0.017600
0.023869	0.003934	-0.013630	0.013365
0.052506	0.044069	-0.013579	0.004779
0.041053	0.032645	-0.007818	-0.001730
0.029646	0.026979	-0.002081	-0.000430
0.035418	0.038465	-0.002078	0.009100
0.001193	0.004221	-0.002077	0.022242
-0.021471	-0.018462	0.003635	0.032556
-0.015489	-0.035343	-0.019229	0.034771
0.013309	-0.012182	-0.024869	0.027367
0.064831	0.033725	-0.030487	0.014270
0.076169	0.045181	-0.030372	0.003655
0.047488	0.039458	-0.007416	0.003187
0.007504	0.016628	0.004025	0.014338
0.001945	0.016731	0.015418	0.030733
0.036382	0.028254	-0.007499	0.042919
0.036416	0.016888	-0.018901	0.045593
0.070711	0.051250	-0.018837	0.040651
0.042052	0.028367	-0.013063	0.034325
0.030642	0.034130	0.004107	0.031850
-0.009274	0.005605	0.015496	0.033747
-0.020474	-0.022802	-0.001715	0.035946
0.008344	-0.011122	-0.018855	0.033426
0.025624	0.000510	-0.024505	0.024724
0.002861	-0.027878	-0.030132	0.013314
-0.019809	-0.073280	-0.052868	0.004096
0.043270	-0.021422	-0.064090	-0.000631
0.077538	0.030224	-0.046715	-0.000512
0.026010	0.018844	-0.012280	0.005268
-0.002465	-0.009621	-0.006539	0.016272
-0.042243	-0.055100	-0.017952	0.027726
-0.076148	-0.094683	-0.023609	0.031940
-0.047100	-0.065580	-0.017823	0.023264
0.010381	-0.008044	-0.017771	0.002629
0.079048	0.049256	-0.023431	-0.020986
0.027517	0.003534	-0.023357	-0.034701
0.004748	-0.019159	-0.023284	-0.030621
-0.017928	-0.041760	-0.023212	-0.012100
-0.023379	-0.035717	-0.011720	0.009139
-0.017387	-0.029698	-0.017407	0.021654
0.000002	-0.029415	-0.028781	0.020889
0.000189	-0.017713	-0.017268	0.010138
0.017506	-0.011769	-0.022933	-0.003035
0.051883	0.022702	-0.028576	-0.011362
-0.045218	-0.068596	-0.022776	-0.011092
-0.113370	-0.119548	-0.005579	-0.004777
-0.112717	-0.130318	-0.022715	-0.001554
-0.037831	-0.055389	-0.016940	-0.010506
0.025328	0.013523	-0.011189	-0.031261
0.059676	0.053600	-0.005463	-0.052180
0.053911	0.030699	-0.022601	-0.058714
0.048170	0.019312	-0.033960	-0.044003
0.036741	-0.009160	-0.045273	-0.012893
0.025360	-0.020386	-0.045119	0.022206
-0.031658	-0.054406	-0.022125	0.048475
-0.002786	-0.019764	-0.022066	0.057783
0.014546	-0.036656	-0.050560	0.049289
0.026098	-0.024928	-0.050386	0.029765
0.037602	0.003882	-0.038793	0.010012
0.031928	0.009733	-0.021536	-0.001048
0.020567	-0.018702	-0.038613	-0.000402
0.026383	-0.018470	-0.044200	0.008886
0.015045	-0.018239	-0.026923	0.020656
-0.007668	-0.035140	-0.026848	0.029210
0.021106	-0.023421	-0.043905	0.031326
-0.018762	-0.063142	-0.043761	0.026890
-0.024205	-0.074150	-0.049329	0.018020
-0.041045	-0.079402	-0.037743	0.006947
-0.023554	-0.067501	-0.043336	-0.004954
0.016708	-0.032807	-0.048906	-0.016067
0.028252	-0.003966	-0.037323	-0.023316
0.022619	-0.026637	-0.042918	-0.023202
0.034140	0.002178	-0.025650	-0.014622
-0.017200	-0.026229	-0.008453	-0.000441
-0.045489	-0.077361	-0.031299	0.013211
-0.045109	-0.071180	-0.025501	0.019294
-0.004757	-0.042183	-0.036857	0.013910
0.029718	-0.001884	-0.031037	-0.000145
0.046922	0.015407	-0.030951	-0.014197
0.035503	0.009787	-0.025156	-0.019186
0.012711	-0.007232	-0.019385	-0.011669
-0.004278	-0.041313	-0.036479	0.004185
0.007355	-0.046703	-0.053504	0.019850
-0.003901	-0.052070	-0.047618	0.028160
0.013441	-0.017443	-0.030335	0.027040
0.013581	-0.011511	-0.024545	0.019354
-0.014831	-0.045575	-0.030199	0.010076
0.002556	-0.050948	-0.052962	0.002906
0.031293	-0.022037	-0.052790	-0.000924
0.008520	-0.021796	-0.035489	-0.001237
0.008681	-0.021557	-0.029679	0.001744
-0.053972	-0.089843	-0.035314	0.006175
-0.064975	-0.112166	-0.046637	0.007963
0.032564	-0.014481	-0.052204	0.003217
0.055469	0.002860	-0.052037	-0.006759
0.009757	-0.048395	-0.051872	-0.014551
0.009914	-0.030917	-0.040287	-0.013509
0.050043	0.015042	-0.034460	-0.003719
0.032905	0.003708	-0.028657	0.010123
0.050098	0.038103	-0.017168	0.023583
0.021538	0.020964	-0.000017	0.034088
0.004516	-0.024658	-0.028619	0.040131
-0.029567	-0.075803	-0.045683	0.040351
-0.040669	-0.081057	-0.039837	0.033471
-0.028883	-0.091998	-0.062567	0.019446
0.017117	-0.034371	-0.050942	0.001101
0.034376	-0.005532	-0.039364	-0.015420
0.005883	-0.022493	-0.027835	-0.023303
0.028899	0.000586	-0.033484	-0.019650
0.040400	0.000730	-0.044821	-0.007110
0.006172	-0.050521	-0.061822	0.008809
-0.010785	-0.061589	-0.050202	0.022461
0.000879	-0.044061	-0.044340	0.029246
-0.050318	-0.066577	-0.015661	0.026970
-0.055622	-0.054738	-0.004231	0.016220
-0.026641	-0.037238	-0.015690	-0.000588
-0.037751	-0.048361	-0.009972	-0.019417
0.008288	-0.030887	-0.044250	-0.034984
0.059849	0.009357	-0.049836	-0.042170
0.059805	0.026594	-0.032559	-0.037228
0.002659	-0.024764	-0.026773	-0.019828
-0.025702	-0.064492	-0.038142	0.004263
-0.002553	-0.046954	-0.043755	0.024570
0.009080	-0.023777	-0.032215	0.032696
-0.036437	-0.069219	-0.032142	0.027633
-0.047505	-0.091634	-0.043491	0.013941
0.009997	-0.039722	-0.049084	-0.002896
-0.006971	-0.045126	-0.043233	-0.017810
0.016103	-0.033378	-0.048827	-0.026196
0.067634	0.018295	-0.048688	-0.025303
0.016168	-0.015900	-0.037130	-0.015030
-0.006535	-0.032824	-0.025619	0.001565
0.010827	-0.015417	-0.025577	0.018087
0.022407	-0.009502	-0.031245	0.028072
0.033941	-0.015032	-0.048312	0.029574
0.022586	-0.037671	-0.059598	0.025676
-0.034405	-0.071639	-0.036577	0.020650
-0.051190	-0.076915	-0.019360	0.015707
-0.056485	-0.082169	-0.019346	0.008415
-0.056048	-0.081692	-0.025042	-0.003833
0.018623	-0.012692	-0.030716	-0.020043
0.070147	0.021762	-0.047788	-0.034277
0.092908	0.021813	-0.070500	-0.037707
0.035630	-0.040950	-0.070278	-0.024394
0.001428	-0.040643	-0.041505	0.002725
-0.009792	-0.028917	-0.018561	0.031882
-0.009545	-0.028659	-0.012843	0.049815
-0.020719	-0.045534	-0.024279	0.049901
-0.020427	-0.062340	-0.041380	0.034460
-0.003004	-0.033395	-0.035569	0.011521
0.025767	0.001143	-0.029783	-0.009581
-0.008392	-0.021565	-0.012600	-0.021648
0.003272	-0.015629	-0.012619	-0.022323
0.054860	0.018834	-0.041191	-0.014282
0.054843	-0.003948	-0.058225	-0.001668
0.049116	0.001915	-0.046638	0.012954
0.037703	0.007753	-0.029388	0.027811
0.003494	-0.003564	-0.006499	0.040182
0.003688	0.002295	-0.000836	0.046585
-0.013250	-0.031842	-0.023748	0.044547
-0.064380	-0.088681	-0.018015	0.033954
-0.006804	-0.013949	-0.006596	0.016775
0.044827	0.037635	-0.006645	-0.002740
0.061984	0.066165	0.004727	-0.017317
0.090490	0.123129	0.038892	-0.019221
0.090328	0.105624	0.015813	-0.005133
0.090167	0.082480	-0.007172	0.021660
0.101425	0.070849	-0.030064	0.053199
0.061245	0.002162	-0.052863	0.080783
0.038359	-0.043403	-0.075568	0.097871
0.015568	-0.054520	-0.075339	0.100988
0.027131	-0.031329	-0.063691	0.090236
0.055778	-0.013944	-0.069221	0.069963
0.055756	0.009080	-0.046177	0.048038
0.032893	-0.007964	-0.046070	0.032411
-0.001298	-0.047779	-0.051673	0.026483
0.010335	-0.047459	-0.057254	0.027383
0.090443	0.004253	-0.085653	0.029729
0.084568	0.015780	-0.068254	0.031606
0.027324	-0.007003	-0.033795	0.035399
-0.023975	-0.029693	-0.005187	0.041998
-0.017960	-0.000897	0.017591	0.046831
-0.017681	-0.017902	0.000304	0.043562
-0.017401	-0.034838	-0.016913	0.030258
0.017139	-0.011733	-0.028350	0.011060
0.028696	-0.017274	-0.045451	-0.006507
-0.016897	-0.051345	-0.033931	-0.015804
-0.079434	-0.090986	-0.016748	-0.015635
-0.130293	-0.130465	0.000364	-0.012292
-0.089577	-0.106968	-0.016857	-0.015675
0.042338	0.002088	-0.039718	-0.030487
0.053795	0.007911	-0.045355	-0.049741
0.042365	0.013710	-0.033838	-0.058993
0.030981	0.008064	-0.022369	-0.048694
0.042484	0.008150	-0.033789	-0.021504
0.031100	-0.003185	-0.033741	0.011408
-0.037341	-0.065867	-0.027984	0.038018
-0.071240	-0.099740	-0.027962	0.049579
-0.047896	-0.070661	-0.022229	0.042047
0.009616	-0.013150	-0.022231	0.018294
0.044050	0.032705	-0.010813	-0.010921
0.044082	0.015558	-0.022284	-0.031388
0.015561	-0.007229	-0.022287	-0.033728
0.027130	0.010048	-0.016581	-0.018805
0.021521	0.015833	-0.010898	0.004327
-0.006907	-0.024088	-0.016660	0.025009
-0.023798	-0.046716	-0.022400	0.035825
-0.029198	-0.040699	-0.010985	0.033951
-0.034576	-0.046128	-0.011038	0.020978
0.028593	-0.011562	-0.039643	0.002213
0.074372	0.017151	-0.062421	-0.014295
0.062860	-0.017067	-0.085106	-0.019971
0.028553	-0.062566	-0.090568	-0.010463
0.022939	-0.062197	-0.084586	0.010432
0.057320	-0.010435	-0.067208	0.033058
0.080139	0.052534	-0.027060	0.049219
0.097154	0.126665	0.030054	0.057357
0.068416	0.154808	0.092643	0.061269
0.102609	0.239937	0.137843	0.065206
0.153792	0.347556	0.194277	0.071385
0.187633	0.471862	0.284740	0.081474
0.232755	0.601365	0.369118	0.097916
0.289111	0.741752	0.453147	0.122890
0.310973	0.795903	0.485434	0.156952
0.349873	0.849824	0.500453	0.198435
0.297246	0.869255	0.572509	0.243120
0.319066	0.962833	0.638554	0.284352
0.329374	1.078860	0.744294	0.315134
0.271113	1.171561	0.895277	0.331609
0.230220	1.298133	1.068474	0.333650
0.223755	1.367073	1.143876	0.322576
0.251576	1.310091	1.053361	0.300942
0.182206	1.093441	0.911813	0.273868
0.044595	0.849118	0.799388	0.246317
-0.052480	0.668602	0.721679	0.217118
-0.160578	0.528791	0.684252	0.177900
-0.279652	0.429519	0.709786	0.119166
-0.398236	0.382043	0.780891	0.036520
-0.493489	0.323337	0.817436	-0.067735
-0.559796	0.259157	0.819561	-0.185979
-0.511620	0.218079	0.730304	-0.306723
-0.412244	0.205718	0.612855	-0.414784
-0.267589	0.210536	0.478749	-0.491830
-0.186338	0.152519	0.339478	-0.520600
-0.145390	0.123288	0.263587	-0.492972
-0.133160	0.088466	0.222266	-0.416636
-0.132399	0.042364	0.169690	-0.314137
-0.074536	0.053553	0.128748	-0.213419
-0.034041	0.076116	0.110813	-0.135374
-0.045104	0.052902	0.098660	-0.086593
-0.016149	0.046913	0.063714	-0.061651
0.029818	0.063789	0.034619	-0.050159
0.064177	0.080594	0.022774	-0.041655
0.058423	0.063068	0.005266	-0.028197
0.024140	0.022771	-0.006462	-0.007116
0.018549	0.011189	-0.006721	0.017587
0.001561	-0.000346	-0.001270	0.037905
-0.003937	-0.011834	-0.007263	0.047099
0.002008	-0.017566	-0.018943	0.043387
-0.003491	-0.034696	-0.030575	0.030193
-0.003257	-0.034624	-0.030740	0.013732
0.002686	-0.040264	-0.048036	-0.000215
0.020026	-0.045881	-0.065261	-0.008225
0.025874	-0.034344	-0.059575	-0.009271
0.048829	0.005696	-0.048203	-0.003957
0.083111	0.045572	-0.036878	0.006422
0.060148	0.011049	-0.048441	0.020614
0.071542	-0.000492	-0.071377	0.036981
0.105729	0.016565	-0.088510	0.053069
0.116935	0.039262	-0.077021	0.067098
0.059570	-0.000949	-0.059870	0.078906
0.025281	-0.040996	-0.071340	0.087721
0.031104	-0.040907	-0.071343	0.090364
0.036904	-0.029398	-0.065637	0.083882
0.036970	-0.023647	-0.059954	0.069357
0.025614	-0.012209	-0.031453	0.051782
0.020016	-0.035081	-0.054463	0.036546
0.042992	-0.029309	-0.071669	0.026631
0.025901	-0.000719	-0.025991	0.022503
0.008881	-0.023639	-0.037604	0.022915
0.026192	-0.006495	-0.037749	0.025288
0.032012	-0.046524	-0.077867	0.026997
0.083490	-0.012156	-0.100690	0.027511
0.054813	-0.017901	-0.077737	0.028968
0.077646	0.004929	-0.077719	0.034021
0.094674	0.016243	-0.077702	0.043353
0.088791	0.010379	-0.077685	0.055667
0.094352	0.015960	-0.077668	0.068911
0.094179	0.038647	-0.054811	0.080916
0.111137	0.049820	-0.060599	0.090065
0.122315	0.032394	-0.089205	0.096191
0.087764	0.015038	-0.072012	0.100421
0.093326	0.032015	-0.060600	0.103546
0.121706	0.054632	-0.072076	0.105205
0.172810	0.099996	-0.072085	0.105763
0.143759	0.048097	-0.089225	0.107966
0.057723	-0.043563	-0.100585	0.114184
-0.022251	-0.106296	-0.083347	0.121172
-0.067635	-0.128799	-0.060469	0.119360
-0.010046	-0.054135	-0.049106	0.099710
0.127251	0.054485	-0.072053	0.063369
0.166910	0.082714	-0.083484	0.025473
0.155012	0.082275	-0.072028	0.007028
0.120321	0.053285	-0.066330	0.019757
0.125743	0.052964	-0.072076	0.057852
0.102590	0.029801	-0.072088	0.103395
0.108083	0.040995	-0.066391	0.138320
0.170656	0.114954	-0.055006	0.153491
0.187289	0.114376	-0.072221	0.151644
0.146750	0.045274	-0.100786	0.143476
0.094955	0.010715	-0.089262	0.138512
0.060502	-0.000861	-0.060654	0.138005
0.089003	0.016161	-0.072136	0.136239
0.134519	0.050244	-0.083571	0.128190
0.151295	0.055634	-0.089250	0.115584
0.139450	0.061000	-0.077774	0.105577
0.139073	0.060634	-0.077766	0.104253
0.121565	0.037426	-0.083469	0.111966
0.149811	0.077125	-0.072018	0.124119
0.137968	0.070978	-0.072035	0.135266
0.166145	0.087696	-0.077762	0.142510
0.142812	0.070083	-0.072046	0.146065
0.119574	0.052540	-0.066353	0.147388
0.147823	0.080750	-0.066394	0.147108
0.118852	0.051740	-0.066436	0.145045
0.152812	0.068530	-0.083609	0.141522
0.220894	0.119512	-0.100711	0.138342
0.214462	0.107470	-0.106323	0.139316
0.208054	0.112606	-0.094781	0.148381
0.161698	0.072038	-0.088997	0.165352
0.172635	0.083026	-0.083237	0.184340
0.217787	0.145362	-0.077500	0.197803
0.245621	0.167467	-0.077498	0.202838
0.250499	0.155218	-0.088917	0.203288
0.283906	0.182989	-0.100289	0.205876
0.254360	0.164962	-0.094483	0.215057
0.230644	0.141296	-0.088702	0.230306
0.195603	0.100594	-0.100075	0.246161
0.172124	0.071478	-0.099981	0.254989
0.194423	0.111003	-0.082757	0.251425
0.210918	0.133234	-0.077024	0.236002
0.238765	0.149662	-0.088446	0.215504
0.277917	0.154599	-0.122662	0.199595
0.294064	0.170935	-0.122476	0.196223
0.270171	0.175781	-0.099450	0.208136
0.246374	0.169185	-0.076518	0.231248
0.291196	0.214005	-0.082232	0.256490
0.290150	0.207247	-0.076502	0.275527
0.266264	0.183383	-0.082217	0.285341
0.231054	0.165325	-0.059357	0.287107
0.207406	0.141628	-0.070853	0.282286
0.223826	0.140868	-0.088012	0.271353
0.217336	0.134398	-0.082260	0.255590
0.176608	0.122243	-0.059401	0.238066
0.158887	0.110135	-0.048056	0.221587
0.192631	0.132338	-0.059600	0.206864
0.203393	0.137316	-0.065387	0.194093
0.214110	0.153693	-0.059729	0.185054
0.190519	0.141448	-0.048385	0.182035
0.149893	0.106411	-0.048509	0.184794
0.115142	0.071516	-0.048633	0.189013
0.109084	0.076734	-0.037336	0.188154
0.165864	0.127612	-0.037506	0.178105
0.159596	0.115466	-0.043387	0.161124
0.084829	0.040554	-0.049244	0.144166
0.027498	-0.016921	-0.049367	0.131667
0.016085	-0.011347	-0.026650	0.120876
0.073242	0.034175	-0.038287	0.105881
0.101612	0.028116	-0.072719	0.085599
0.067053	-0.012180	-0.078459	0.066084
0.009793	-0.058023	-0.067045	0.054253
0.004161	-0.052285	-0.061388	0.050575
0.009972	-0.052282	-0.055754	0.049216
0.032891	-0.018017	-0.050145	0.044449
0.010033	-0.046707	-0.055979	0.035405
-0.024153	-0.098121	-0.073210	0.024825
-0.058197	-0.115062	-0.056110	0.014634
-0.063550	-0.126224	-0.061921	0.003759
-0.068881	-0.114498	-0.050577	-0.009992
0.000045	-0.045717	-0.039281	-0.026517
0.028716	-0.011480	-0.039452	-0.041427
-0.011254	-0.063039	-0.051044	-0.047911
-0.028218	-0.102967	-0.074009	-0.042507
-0.033693	-0.102759	-0.068329	-0.028992
-0.022013	-0.085420	-0.062673	-0.015496
-0.033222	-0.096705	-0.062751	-0.008396
0.001297	-0.062260	-0.062828	-0.009041
-0.015718	-0.073640	-0.057196	-0.014355
-0.038373	-0.084973	-0.045876	-0.019868
-0.026673	-0.096260	-0.068866	-0.023118
-0.037862	-0.124631	-0.080341	-0.024520
-0.020453	-0.067232	-0.046087	-0.025511
0.002595	-0.038619	-0.040525	-0.026557
-0.031554	-0.078648	-0.046407	-0.026723
-0.065563	-0.118514	-0.057976	-0.025432
-0.048040	-0.118243	-0.075208	-0.024458
-0.024877	-0.100843	-0.075239	-0.026458
-0.018940	-0.094934	-0.075271	-0.031465
-0.018737	-0.066209	-0.046750	-0.036379
-0.041376	-0.071863	-0.029768	-0.038025
-0.058211	-0.111756	-0.052829	-0.036135
-0.046426	-0.134355	-0.087216	-0.033471
-0.057529	-0.122599	-0.064359	-0.033255
-0.080008	-0.116602	-0.041596	-0.036884
-0.073841	-0.127760	-0.053189	-0.044016
-0.033438	-0.104609	-0.070445	-0.053171
-0.056012	-0.115816	-0.064790	-0.061477
-0.027102	-0.081294	-0.053447	-0.065590
0.018822	-0.058334	-0.076414	-0.063414
-0.009676	-0.064021	-0.053604	-0.054365
-0.055189	-0.098236	-0.042309	-0.039922
-0.071963	-0.098048	-0.025351	-0.025155
-0.048695	-0.057890	-0.008462	-0.017081
-0.065494	-0.092130	-0.020196	-0.019630
-0.105066	-0.131941	-0.026171	-0.031322
-0.047398	-0.091643	-0.049254	-0.047684
-0.052780	-0.114325	-0.060822	-0.063605
-0.052429	-0.142623	-0.083764	-0.074175
-0.017817	-0.113702	-0.095192	-0.076347
-0.017609	-0.084900	-0.060890	-0.070025
-0.028822	-0.073346	-0.049570	-0.057394
-0.034278	-0.090392	-0.055429	-0.042289
-0.034001	-0.090237	-0.055553	-0.029308
-0.056566	-0.118634	-0.061388	-0.022032
-0.044776	-0.095522	-0.050068	-0.021780
-0.038744	-0.095346	-0.055926	-0.027410
-0.021316	-0.089461	-0.067471	-0.035636
-0.015380	-0.077889	-0.061838	-0.042168
-0.026599	-0.077786	-0.056229	-0.043729
-0.032061	-0.077683	-0.044932	-0.039861
-0.043211	-0.077580	-0.027973	-0.033133
-0.048604	-0.083189	-0.033924	-0.027479
-0.019713	-0.054513	-0.028431	-0.025753
0.043322	0.019728	-0.028672	-0.027482
0.003313	-0.049094	-0.051754	-0.028430
-0.013691	-0.094794	-0.074742	-0.024195
-0.013494	-0.111754	-0.097635	-0.014904
-0.001877	-0.088673	-0.091884	-0.004974
0.009693	-0.065687	-0.074736	0.001422
-0.018757	-0.059926	-0.046237	0.003276
-0.029960	-0.071320	-0.034987	0.001661
-0.058247	-0.088377	-0.029494	-0.002721
-0.040735	-0.071103	-0.029734	-0.010142
-0.023294	-0.099583	-0.075657	-0.020270
-0.011635	-0.082263	-0.075709	-0.030611
-0.000023	-0.059304	-0.064341	-0.037208
-0.034141	-0.082123	-0.047309	-0.037312
-0.050989	-0.099137	-0.047479	-0.031848
-0.033505	-0.087530	-0.053359	-0.025251
-0.010381	-0.064550	-0.053505	-0.021921
-0.055876	-0.093058	-0.036520	-0.022886
-0.084053	-0.138579	-0.048156	-0.026881
-0.066432	-0.149652	-0.082587	-0.033436
-0.008910	-0.086445	-0.076905	-0.042385
-0.003016	-0.063470	-0.059825	-0.050857
-0.054249	-0.109112	-0.054237	-0.054001
-0.031037	-0.091754	-0.060093	-0.049864
-0.013631	-0.068757	-0.060215	-0.041300
-0.019137	-0.074406	-0.054626	-0.032438
-0.018910	-0.091452	-0.071902	-0.025491
-0.012973	-0.097008	-0.083397	-0.020885
-0.041322	-0.102542	-0.060584	-0.018415
-0.035293	-0.090921	-0.054995	-0.018064
-0.057840	-0.113611	-0.055140	-0.020261
-0.034611	-0.101945	-0.060996	-0.025236
-0.022897	-0.084617	-0.061117	-0.031984
-0.028362	-0.090201	-0.061238	-0.038009
-0.022384	-0.095762	-0.072780	-0.040714
0.000701	-0.078460	-0.078565	-0.039023
-0.016281	-0.089779	-0.078616	-0.033444
-0.033193	-0.118184	-0.078667	-0.025653
-0.021483	-0.123631	-0.101559	-0.018413
-0.066925	-0.163317	-0.101516	-0.014689
-0.060786	-0.151447	-0.090053	-0.016491
-0.066093	-0.139626	-0.072927	-0.024295
-0.054247	-0.122142	-0.067292	-0.036508
-0.031028	-0.110440	-0.084522	-0.049447
-0.002193	-0.110206	-0.113101	-0.058406
0.020813	-0.081421	-0.101592	-0.059190
-0.024799	-0.121279	-0.095840	-0.050090
-0.024541	-0.126711	-0.095822	-0.033859
-0.047125	-0.137831	-0.090094	-0.017294
-0.006802	-0.086091	-0.078680	-0.007253
-0.006617	-0.091667	-0.084443	-0.006120
-0.040694	-0.125772	-0.078762	-0.011068
-0.063211	-0.136895	-0.073105	-0.017935
-0.074214	-0.147972	-0.073182	-0.025181
-0.016647	-0.096190	-0.078968	-0.033378
-0.039261	-0.113144	-0.079022	-0.041855
-0.084622	-0.164291	-0.079075	-0.048186
-0.089825	-0.175255	-0.084839	-0.051646
-0.032192	-0.129070	-0.096289	-0.054406
-0.003346	-0.100205	-0.096272	-0.057616
-0.008881	-0.105721	-0.096255	-0.058555
-0.025813	-0.122634	-0.096239	-0.053566
-0.042675	-0.139478	-0.096223	-0.042723
0.003346	-0.093438	-0.096206	-0.030217
0.003495	-0.087560	-0.090480	-0.020264
-0.059169	-0.150230	-0.090488	-0.014200
-0.098734	-0.184091	-0.084785	-0.012525
-0.081034	-0.183550	-0.107658	-0.017406
-0.046274	-0.165880	-0.119016	-0.030246
-0.000236	-0.119731	-0.118907	-0.047471
-0.000068	-0.102321	-0.101668	-0.060842
-0.011322	-0.107825	-0.095920	-0.062857
-0.096763	-0.193250	-0.095906	-0.052715
-0.101909	-0.198380	-0.095892	-0.038056
-0.072772	-0.169226	-0.090168	-0.030040
0.001930	-0.094508	-0.095888	-0.034388
0.047774	-0.054358	-0.107295	-0.046069
0.030617	-0.071477	-0.101524	-0.053054
-0.020732	-0.111366	-0.090067	-0.046322
-0.060450	-0.151092	-0.090078	-0.027557
-0.065742	-0.167814	-0.107219	-0.007846
-0.048171	-0.150204	-0.101449	0.001011
-0.024961	-0.115536	-0.089993	-0.005160
-0.036108	-0.109561	-0.072873	-0.021279
-0.064339	-0.160713	-0.095796	-0.038285
-0.058192	-0.171683	-0.107205	-0.049939
-0.006388	-0.091242	-0.090015	-0.054971
0.005233	-0.085365	-0.095737	-0.054050
-0.046008	-0.142325	-0.095726	-0.047522
-0.039935	-0.136239	-0.095715	-0.037198
0.006086	-0.078784	-0.084283	-0.027188
0.017657	-0.078668	-0.095739	-0.020377
0.006338	-0.084262	-0.090018	-0.015772
-0.016354	-0.095544	-0.078610	-0.010927
-0.061794	-0.158173	-0.095800	-0.005867
-0.055655	-0.169152	-0.112921	-0.003894
0.001852	-0.122982	-0.124260	-0.008265
-0.015110	-0.116973	-0.095581	-0.017854
-0.037712	-0.133830	-0.101282	-0.027437
-0.025960	-0.162038	-0.135511	-0.032689
-0.048517	-0.150157	-0.101075	-0.033320
-0.076692	-0.149746	-0.072491	-0.032099
-0.081909	-0.183597	-0.101128	-0.032894
-0.047132	-0.154496	-0.106806	-0.038479
-0.012497	-0.125513	-0.112460	-0.047913
-0.000845	-0.113780	-0.106671	-0.056052
-0.017792	-0.113515	-0.100906	-0.057001
-0.023248	-0.124672	-0.100875	-0.048841
-0.017262	-0.124362	-0.106554	-0.035019
-0.022720	-0.112633	-0.089368	-0.021420
-0.011024	-0.106662	-0.089384	-0.012477
-0.005087	-0.106425	-0.100821	-0.009299
-0.004884	-0.089059	-0.083660	-0.010050
0.001029	-0.071763	-0.077989	-0.011725
-0.033054	-0.088800	-0.055212	-0.012209
-0.066998	-0.088637	-0.015397	-0.011853
-0.095091	-0.111316	-0.015718	-0.013764
-0.094517	-0.128191	-0.033169	-0.021870
-0.031131	-0.110735	-0.079101	-0.037239
-0.002266	-0.127612	-0.124845	-0.055284
-0.036333	-0.172971	-0.136140	-0.067532
-0.047418	-0.189592	-0.141678	-0.068109
-0.001354	-0.114780	-0.118642	-0.058221
0.015970	-0.080245	-0.095700	-0.043309
-0.001040	-0.108666	-0.107113	-0.027755
-0.017979	-0.114129	-0.095639	-0.013870
-0.063400	-0.136700	-0.072791	-0.004019
-0.034401	-0.102076	-0.061458	-0.001198
0.005901	-0.061882	-0.067302	-0.006489
0.011776	-0.084667	-0.095964	-0.016280
-0.033765	-0.124490	-0.095958	-0.024009
-0.022017	-0.107046	-0.084530	-0.025727
-0.016027	-0.078253	-0.061729	-0.022655
-0.010061	-0.078130	-0.067574	-0.018318
-0.038381	-0.129399	-0.090525	-0.015219
-0.049454	-0.151907	-0.096252	-0.014631
-0.054771	-0.151481	-0.096246	-0.017541
-0.037224	-0.133926	-0.096239	-0.024226
-0.036879	-0.139283	-0.101943	-0.033156
-0.059376	-0.150328	-0.090492	-0.041446
-0.030388	-0.098514	-0.067668	-0.046877
-0.018649	-0.075463	-0.062069	-0.048727
-0.006958	-0.069638	-0.062203	-0.046766
0.044657	-0.029576	-0.073758	-0.040504
0.033248	-0.046780	-0.079556	-0.029283
-0.000956	-0.086757	-0.085330	-0.013454
-0.040731	-0.137990	-0.096790	0.003513
-0.046080	-0.137619	-0.091073	0.015058
-0.028565	-0.120120	-0.091090	0.015504
-0.039673	-0.108401	-0.073976	0.004458
-0.079287	-0.148124	-0.068353	-0.013293
-0.050214	-0.142001	-0.091305	-0.031938
0.018713	-0.090219	-0.114163	-0.047064
-0.004008	-0.101464	-0.096955	-0.054609
-0.055186	-0.135503	-0.085528	-0.051853
-0.031921	-0.112300	-0.079858	-0.041078
-0.014461	-0.100612	-0.085633	-0.028925
-0.008492	-0.083261	-0.074252	-0.020749
-0.025390	-0.100244	-0.074340	-0.017429
0.003465	-0.077184	-0.085848	-0.017040
0.003651	-0.071351	-0.080178	-0.017145
-0.007585	-0.076961	-0.074531	-0.015775
0.009777	-0.053998	-0.057488	-0.012220
0.021357	-0.036839	-0.057645	-0.007068
-0.018503	-0.065433	-0.052092	-0.001342
-0.035358	-0.076779	-0.040852	0.003350
-0.029302	-0.070948	-0.041079	0.004420
-0.034691	-0.082272	-0.047016	-0.000050
0.051307	-0.019316	-0.075770	-0.008811
0.062719	-0.059404	-0.115828	-0.016480
0.039821	-0.065065	-0.104328	-0.016051
0.034148	-0.059284	-0.092876	-0.004450
0.045630	-0.042105	-0.092891	0.014573
0.045643	-0.047839	-0.092906	0.033739
0.011394	-0.076390	-0.092921	0.047146
0.011547	-0.076274	-0.087227	0.051969
-0.005431	-0.110419	-0.104396	0.047941
-0.028049	-0.144425	-0.115785	0.036750
-0.039154	-0.166870	-0.127128	0.021062
0.024021	-0.109278	-0.132713	0.003902
0.086937	-0.034791	-0.121145	-0.010165
0.103912	-0.029134	-0.132465	-0.014394
0.023742	-0.109154	-0.132317	-0.003751
-0.016128	-0.126034	-0.109329	0.018773
-0.021572	-0.125713	-0.103566	0.041445
0.041530	-0.068289	-0.109247	0.051948
-0.004122	-0.108177	-0.103484	0.046647
-0.015326	-0.102218	-0.086325	0.031127
0.002069	-0.090574	-0.092077	0.013443
-0.049132	-0.153211	-0.103515	-0.001119
-0.025888	-0.169908	-0.143459	-0.011116
-0.002739	-0.123723	-0.120425	-0.017618
0.008894	-0.083437	-0.097485	-0.021401
0.014770	-0.083289	-0.103191	-0.021565
0.032043	-0.077430	-0.108874	-0.016939
-0.019280	-0.128699	-0.108822	-0.007987
-0.041840	-0.162627	-0.125902	0.002072
-0.001494	-0.122181	-0.120071	0.008127
-0.012705	-0.139003	-0.125684	0.006964
-0.006740	-0.121494	-0.114143	0.000030
-0.023640	-0.132609	-0.108359	-0.008430
-0.040471	-0.143677	-0.102599	-0.015139
-0.005839	-0.109017	-0.102573	-0.019398
-0.017031	-0.125891	-0.113968	-0.021774
-0.028178	-0.142697	-0.113895	-0.022538
-0.050699	-0.159432	-0.102402	-0.022217
-0.061706	-0.164678	-0.108087	-0.022605
-0.049826	-0.147061	-0.096618	-0.025936
-0.020864	-0.100964	-0.085195	-0.032681
0.013691	-0.060765	-0.073820	-0.040061
-0.037551	-0.117807	-0.079622	-0.043403
-0.082872	-0.174615	-0.091112	-0.040571
-0.059483	-0.179797	-0.119685	-0.035046
-0.024769	-0.133564	-0.108169	-0.032673
-0.001616	-0.104650	-0.108120	-0.035290
0.015731	-0.092986	-0.108072	-0.038953
0.021586	-0.104211	-0.125154	-0.037834
-0.006844	-0.143941	-0.142167	-0.029034
0.021945	-0.154957	-0.176241	-0.014548
0.039196	-0.160216	-0.198753	0.000859
0.027825	-0.154033	-0.181201	0.013581
0.062182	-0.073640	-0.135168	0.022807
0.079267	0.012133	-0.066482	0.029845
0.050600	0.057582	0.013343	0.036915
0.062022	0.142816	0.081419	0.045203
0.141920	0.273382	0.132084	0.054218
0.187228	0.369148	0.182539	0.064554
0.215218	0.493069	0.278468	0.079869
0.260223	0.627898	0.374001	0.104284
0.305041	0.745039	0.440586	0.138880
0.326832	0.810299	0.484053	0.181299
0.359952	0.892416	0.533048	0.227232
0.335831	0.951346	0.616098	0.271689
0.277543	1.021447	0.738774	0.309225
0.230913	1.131224	0.900913	0.333520
0.201602	1.269093	1.062379	0.338597
0.212383	1.372123	1.160361	0.322451
0.177435	1.274858	1.092331	0.289744
0.108367	1.058063	0.944625	0.249646
0.016740	0.825016	0.803226	0.209471
-0.068802	0.627177	0.696661	0.169806
-0.171123	0.504377	0.676179	0.125239
-0.250183	0.444888	0.690037	0.069005
-0.357468	0.374217	0.726672	-0.002613
-0.458600	0.303832	0.763151	-0.088806
-0.496500	0.256573	0.753790	-0.185262
-0.454296	0.175243	0.630253	-0.284541
-0.389420	0.099954	0.490086	-0.374884
-0.296255	0.087785	0.379039	-0.440982
-0.254862	0.047113	0.302705	-0.469093
-0.219346	0.012316	0.232390	-0.454018
-0.149712	0.006213	0.150939	-0.402549
-0.080362	0.005844	0.086951	-0.329773
-0.017005	0.045447	0.063195	-0.251057
-0.016721	-0.000767	0.016694	-0.176681
-0.062120	-0.035373	0.021775	-0.112512
-0.055940	-0.058417	-0.001718	-0.063411
-0.032653	-0.069946	-0.042247	-0.033430
-0.026593	-0.092849	-0.065479	-0.022352
0.025126	-0.075686	-0.105747	-0.023996
0.070922	-0.035752	-0.105879	-0.028390
0.019455	-0.064506	-0.083169	-0.026066
0.013882	-0.070301	-0.083393	-0.013243
0.036882	-0.047522	-0.083617	0.006042
-0.003025	-0.081939	-0.078130	0.023987
-0.042768	-0.093375	-0.049824	0.034139
-0.002404	-0.053370	-0.050187	0.033177
0.026375	-0.087765	-0.113363	0.022123
0.066456	-0.087756	-0.147728	0.007437
0.077821	-0.076327	-0.153400	-0.001509
0.020615	-0.104918	-0.130498	0.001756
0.009326	-0.116260	-0.124820	0.015957
-0.007627	-0.121845	-0.113455	0.032607
0.026883	-0.098856	-0.119267	0.042271
0.009858	-0.115934	-0.125056	0.041040
0.021455	-0.110100	-0.130821	0.031729
0.050135	-0.075738	-0.125142	0.020513
0.072987	-0.047228	-0.119486	0.013510
0.067193	-0.058807	-0.125274	0.014872
0.027161	-0.110311	-0.136749	0.024953
0.004424	-0.110211	-0.113914	0.039144
-0.001090	-0.121533	-0.119725	0.049736
0.067654	-0.075704	-0.142643	0.051038
0.107564	-0.041485	-0.148336	0.044345
0.073076	-0.070219	-0.142584	0.037558
0.067280	-0.070285	-0.136857	0.038360
0.038666	-0.104612	-0.142573	0.047672
0.067273	-0.075985	-0.142555	0.059998
0.084341	-0.053186	-0.136827	0.069112
0.072787	-0.070454	-0.142542	0.072818
0.061280	-0.081940	-0.142524	0.072778
0.061240	-0.081959	-0.142506	0.071258
0.072621	-0.070557	-0.148198	0.069342
0.055403	-0.070623	-0.125315	0.067439
0.066807	-0.059269	-0.125366	0.065816
0.078163	-0.042251	-0.119707	0.064654
0.066632	-0.059565	-0.125493	0.064316
0.077988	-0.048257	-0.125544	0.065202
0.072167	-0.048416	-0.119884	0.067241
0.060659	-0.054286	-0.119958	0.069776
0.077749	-0.048711	-0.125742	0.071817
0.083347	-0.060291	-0.142923	0.072755
0.060371	-0.077534	-0.137192	0.072923
0.043199	-0.083285	-0.131484	0.072690
0.031807	-0.089014	-0.120089	0.071172
0.037593	-0.077588	-0.114452	0.066780
0.066196	-0.043368	-0.114547	0.059258
0.060419	-0.037840	-0.103222	0.050921
0.111769	-0.003784	-0.109075	0.045713
0.145777	0.013001	-0.132034	0.047462
0.128252	-0.010256	-0.137768	0.058570
0.093667	-0.044839	-0.137769	0.078050
0.116325	-0.016468	-0.137769	0.100293
0.110339	-0.016765	-0.126348	0.117908
0.058694	-0.057034	-0.120685	0.126161
0.075783	-0.034324	-0.109334	0.124009
0.081382	-0.028840	-0.109450	0.113142
0.075536	-0.057640	-0.132408	0.097707
0.058293	-0.092033	-0.149561	0.082897
0.126776	-0.023500	-0.149512	0.072583
0.183556	0.050462	-0.132332	0.069487
0.200130	0.084148	-0.120934	0.076792
0.148110	0.026329	-0.126712	0.096345
0.147696	0.025849	-0.121046	0.124473
0.152992	0.025370	-0.126825	0.152063
0.124004	-0.026501	-0.149710	0.170131
0.135105	-0.015347	-0.149660	0.174658
0.163291	0.024313	-0.143900	0.167439
0.185650	0.029546	-0.155294	0.154843
0.173654	0.017627	-0.160930	0.144974
0.150285	0.011465	-0.137992	0.143187
0.172694	0.028169	-0.143699	0.149155
0.183588	0.050514	-0.137962	0.158594
0.171595	0.038504	-0.126538	0.167431
0.171071	0.037963	-0.132291	0.173695
0.176258	0.037422	-0.143731	0.176885
0.158581	0.008331	-0.143704	0.177290
0.186657	0.036462	-0.149386	0.175723
0.208907	0.058765	-0.155045	0.173671
0.213933	0.058135	-0.154971	0.173556
0.207516	0.068926	-0.143475	0.177667
0.189703	0.056831	-0.137737	0.186056
0.171962	0.044784	-0.132022	0.195732
0.194264	0.067046	-0.126331	0.202343
0.182211	0.060665	-0.120662	0.203207
0.227309	0.099990	-0.126438	0.199209
0.232249	0.104891	-0.126479	0.194318
0.220035	0.086929	-0.132231	0.193206
0.190739	0.057618	-0.132248	0.197891
0.241505	0.102660	-0.132265	0.206219
0.269221	0.124675	-0.143703	0.214752
0.256848	0.112335	-0.143673	0.222641
0.273076	0.140016	-0.132222	0.231302
0.237842	0.116189	-0.120818	0.241353
0.271275	0.132430	-0.138012	0.251267
0.253175	0.108630	-0.138005	0.258730
0.212306	0.096346	-0.120867	0.262246
0.205865	0.112663	-0.092378	0.260822
0.182317	0.094649	-0.086847	0.253415
0.164575	0.053865	-0.109891	0.239814
0.175455	0.047510	-0.121419	0.221457
0.197711	0.081151	-0.110060	0.201582
0.174191	0.080391	-0.093036	0.184675
0.156476	0.085342	-0.070372	0.174187
0.138832	0.073141	-0.064932	0.169921
0.144101	0.078119	-0.070936	0.168308
0.120796	0.025972	-0.094046	0.165332
0.103295	0.019721	-0.082800	0.158748
0.148679	0.059176	-0.088731	0.148490
0.165323	0.092757	-0.071797	0.137029
0.101954	0.029124	-0.066353	0.128621
0.067396	0.005723	-0.060932	0.125290
0.061530	-0.017583	-0.084085	0.123758
0.010004	-0.080767	-0.090013	0.117956
-0.035599	-0.103720	-0.067365	0.103345
-0.041044	-0.103738	-0.061941	0.078507
0.004927	-0.075205	-0.079381	0.045748
-0.017814	-0.092471	-0.073909	0.011675
-0.006200	-0.069694	-0.057038	-0.015281
-0.000343	-0.058432	-0.057368	-0.029632
0.011199	-0.035795	-0.046277	-0.031040
0.062667	0.003879	-0.058073	-0.022602
0.051110	-0.019424	-0.069821	-0.007884
-0.023214	-0.145418	-0.127204	0.009749
-0.034420	-0.150979	-0.115828	0.025091
-0.005607	-0.099413	-0.093078	0.031532
-0.016884	-0.128004	-0.110394	0.025953
-0.039536	-0.145056	-0.104797	0.011403
-0.084936	-0.179170	-0.093513	-0.006409
-0.067335	-0.190301	-0.122248	-0.023859
-0.084068	-0.195677	-0.110893	-0.040061
-0.043629	-0.138216	-0.093874	-0.054516
-0.009065	-0.115252	-0.099766	-0.065209
-0.037456	-0.149485	-0.111344	-0.068914
-0.071441	-0.194998	-0.117165	-0.064223
-0.071024	-0.166090	-0.094410	-0.054509
-0.064898	-0.143010	-0.083169	-0.046273
-0.041665	-0.114315	-0.071974	-0.044082
-0.047079	-0.114288	-0.066536	-0.047561
-0.069601	-0.142813	-0.078252	-0.053006
-0.069189	-0.148379	-0.078499	-0.057296
-0.068778	-0.148213	-0.084456	-0.059894
-0.096919	-0.170887	-0.073258	-0.061968
-0.102104	-0.182048	-0.079237	-0.065127
-0.078714	-0.158901	-0.079481	-0.070602
-0.072551	-0.135848	-0.068304	-0.077927
-0.129226	-0.204254	-0.074305	-0.084939
-0.128564	-0.203855	-0.074570	-0.090432
-0.059380	-0.129223	-0.069125	-0.095336
-0.041872	-0.123421	-0.075123	-0.099518
-0.024435	-0.117642	-0.092517	-0.099524
-0.047042	-0.134728	-0.086999	-0.091623
-0.058134	-0.134612	-0.075793	-0.076248
-0.074892	-0.163049	-0.087475	-0.058705
-0.091580	-0.168528	-0.081978	-0.046050
-0.028254	-0.099749	-0.070794	-0.042770
-0.033711	-0.099776	-0.065366	-0.047685
-0.039146	-0.088382	-0.054251	-0.054772
-0.021716	-0.088456	-0.066022	-0.057940
-0.032910	-0.105660	-0.072036	-0.054818
-0.049767	-0.105664	-0.055184	-0.046942
-0.066555	-0.117087	-0.055533	-0.038353
-0.094694	-0.157016	-0.061591	-0.033821
-0.099876	-0.162519	-0.061914	-0.036875
-0.093616	-0.145157	-0.050816	-0.048198
-0.081669	-0.110735	-0.028343	-0.064939
-0.081192	-0.116427	-0.034514	-0.081744
-0.097846	-0.122095	-0.029240	-0.093553
-0.028777	-0.070636	-0.041120	-0.097940
0.005747	-0.047940	-0.052951	-0.094372
-0.074076	-0.128124	-0.053314	-0.082814
-0.125020	-0.196558	-0.070807	-0.066156
-0.061547	-0.127663	-0.059677	-0.052075
0.001665	-0.036209	-0.042882	-0.047288
0.007516	-0.047917	-0.054709	-0.050121
-0.015209	-0.070997	-0.055067	-0.052201
-0.032130	-0.082562	-0.049713	-0.047174
-0.043271	-0.082660	-0.044382	-0.035953
-0.060077	-0.111309	-0.050495	-0.024667
-0.042551	-0.105578	-0.062292	-0.019421
-0.053649	-0.122713	-0.062622	-0.022441
-0.064700	-0.116936	-0.051530	-0.031646
-0.064285	-0.111182	-0.046194	-0.043112
-0.063870	-0.111162	-0.052301	-0.053582
-0.086299	-0.139694	-0.052673	-0.061385
-0.074372	-0.116716	-0.041624	-0.066519
-0.068205	-0.116673	-0.047752	-0.069971
-0.090613	-0.145182	-0.053854	-0.072533
-0.072957	-0.127891	-0.054223	-0.074565
-0.043951	-0.104961	-0.060300	-0.076076
0.002067	-0.064993	-0.066353	-0.075769
-0.009207	-0.076583	-0.066671	-0.070784
-0.026145	-0.099546	-0.078409	-0.059144
-0.014461	-0.082442	-0.067258	-0.042635
-0.014246	-0.076830	-0.067574	-0.026110
-0.071134	-0.116923	-0.045047	-0.014380
-0.099238	-0.156852	-0.056875	-0.010946
-0.058701	-0.133803	-0.080076	-0.017849
-0.024041	-0.088008	-0.068920	-0.033447
-0.046625	-0.088082	-0.040679	-0.051077
-0.063406	-0.110998	-0.046817	-0.063017
-0.102958	-0.156661	-0.052930	-0.066456
-0.119507	-0.173585	-0.053308	-0.065158
-0.033201	-0.104784	-0.070815	-0.065315
-0.015772	-0.093369	-0.076831	-0.069011
-0.015546	-0.099131	-0.082823	-0.071914
-0.032450	-0.104869	-0.071659	-0.068253
-0.020734	-0.087743	-0.066252	-0.056824
-0.043328	-0.110660	-0.066577	-0.041605
-0.060118	-0.133482	-0.072612	-0.028533
-0.065418	-0.127659	-0.061492	-0.022495
-0.059275	-0.110439	-0.056128	-0.025436
-0.064577	-0.104710	-0.045076	-0.035598
-0.069857	-0.110426	-0.045490	-0.048704
-0.080825	-0.133248	-0.051614	-0.060561
-0.063196	-0.127426	-0.063423	-0.068916
-0.057059	-0.133048	-0.075184	-0.073281
-0.050947	-0.127226	-0.075477	-0.073793
-0.022018	-0.087165	-0.064349	-0.070635
0.001083	-0.058690	-0.058976	-0.063812
-0.021594	-0.076014	-0.053627	-0.053227
-0.067019	-0.121819	-0.054009	-0.040175
-0.077995	-0.133174	-0.054391	-0.028908
-0.077504	-0.115931	-0.043351	-0.025009
-0.048464	-0.110179	-0.060909	-0.031078
-0.030962	-0.087319	-0.055553	-0.044033
-0.030663	-0.070264	-0.038800	-0.056747
-0.036075	-0.093251	-0.056377	-0.062727
-0.075727	-0.133275	-0.056753	-0.060213
-0.058112	-0.104610	-0.045706	-0.052856
-0.040569	-0.087484	-0.046126	-0.046390
-0.051648	-0.093270	-0.040834	-0.044089
-0.074103	-0.116163	-0.041275	-0.045619
-0.056493	-0.116120	-0.058846	-0.049367
-0.033243	-0.104657	-0.070635	-0.053856
-0.061482	-0.116083	-0.053824	-0.057312
-0.083894	-0.121751	-0.037083	-0.058484
-0.083372	-0.098844	-0.014700	-0.058407
-0.060010	-0.070320	-0.015252	-0.059575
-0.071006	-0.104727	-0.032932	-0.063054
-0.099086	-0.150414	-0.050541	-0.067748
-0.109920	-0.178783	-0.068079	-0.072632
-0.069315	-0.149931	-0.079835	-0.077970
-0.103110	-0.155459	-0.051570	-0.083783
-0.102504	-0.155254	-0.051974	-0.089038
-0.027665	-0.086525	-0.058086	-0.092540
-0.021656	-0.092312	-0.075595	-0.092429
-0.044224	-0.126627	-0.081611	-0.086017
-0.078118	-0.149380	-0.070473	-0.073034
-0.037640	-0.086385	-0.047959	-0.057844
0.042646	0.004903	-0.036959	-0.045629
-0.008735	-0.012680	-0.003164	-0.036893
-0.082746	-0.087294	-0.003769	-0.028881
-0.087930	-0.104500	-0.015794	-0.022173
-0.104512	-0.144476	-0.044901	-0.021940
-0.098184	-0.150027	-0.051048	-0.032300
-0.046199	-0.075610	-0.028620	-0.051600
-0.022978	-0.041470	-0.017704	-0.072329
-0.051244	-0.081705	-0.029675	-0.085098
-0.073684	-0.121775	-0.053018	-0.084913
-0.107451	-0.161680	-0.053425	-0.074916
-0.135369	-0.201422	-0.065251	-0.064157
-0.134620	-0.189607	-0.059899	-0.061767
-0.059639	-0.120737	-0.060279	-0.071317
0.015036	-0.040728	-0.054947	-0.087575
-0.030512	-0.046702	-0.021087	-0.098736
-0.064452	-0.069783	0.001214	-0.095283
-0.069701	-0.115611	-0.045102	-0.078139
-0.092058	-0.166961	-0.074097	-0.057375
-0.080062	-0.121025	-0.040161	-0.044005
-0.022431	-0.052436	-0.029205	-0.042911
-0.027849	-0.041231	-0.012585	-0.050599
-0.061797	-0.075756	-0.013164	-0.058836
-0.072763	-0.098718	-0.025163	-0.061814
-0.083684	-0.121586	-0.037113	-0.060010
-0.105980	-0.161492	-0.054725	-0.057970
-0.065370	-0.132709	-0.066555	-0.059890
0.009336	-0.041231	-0.049786	-0.065913
-0.036180	-0.070045	-0.033085	-0.071031
-0.087220	-0.104451	-0.016454	-0.069579
-0.109499	-0.121585	-0.017023	-0.062035
-0.074582	-0.075835	-0.006169	-0.055200
-0.079779	-0.070245	0.010349	-0.055238
-0.124927	-0.127492	-0.001753	-0.062796
-0.124206	-0.144532	-0.019516	-0.075003
-0.089225	-0.115819	-0.025787	-0.088900
-0.060097	-0.098644	-0.037743	-0.101306
-0.082480	-0.115802	-0.038230	-0.108143
-0.093350	-0.121468	-0.027296	-0.106882
-0.087044	-0.098560	-0.010696	-0.099197
-0.035080	-0.035773	0.000124	-0.089421
0.016671	0.009626	-0.006232	-0.079960
0.005397	-0.002266	-0.012562	-0.069006
-0.097196	-0.105475	-0.007447	-0.054181
-0.142264	-0.145448	-0.008064	-0.038776
-0.084361	-0.088181	-0.002969	-0.031800
-0.015274	-0.025438	-0.015027	-0.039091
-0.020704	-0.031477	-0.009906	-0.055697
-0.066083	-0.071754	-0.004806	-0.069815
-0.077014	-0.089024	-0.011148	-0.073660
-0.053637	-0.066252	-0.011756	-0.068554
-0.030356	-0.049283	-0.018071	-0.060466
-0.024300	-0.020964	0.004189	-0.053438
0.010283	0.012949	0.003517	-0.047519
0.010462	-0.010382	-0.019995	-0.040481
-0.029332	-0.045037	-0.014860	-0.030615
-0.068962	-0.068131	-0.004037	-0.019454
-0.068457	-0.085420	-0.016100	-0.012138
-0.067954	-0.091218	-0.022404	-0.013818
-0.073162	-0.102703	-0.028683	-0.025373
-0.061217	-0.085588	-0.023517	-0.042809
-0.112134	-0.131358	-0.018372	-0.060314
-0.145710	-0.148388	-0.007539	-0.074410
-0.116334	-0.113955	0.003249	-0.085841
-0.047105	-0.045401	-0.003139	-0.096503
-0.012421	-0.039942	-0.026633	-0.104469
-0.006431	-0.045926	-0.038611	-0.103912
-0.040437	-0.046176	-0.004858	-0.090751
-0.102854	-0.080687	0.023045	-0.068104
-0.090781	-0.086506	0.005151	-0.046094
-0.055915	-0.069459	-0.012671	-0.035232
-0.066874	-0.081034	-0.013290	-0.038771
-0.060657	-0.086852	-0.025328	-0.051533
-0.077305	-0.098356	-0.020186	-0.065353
-0.082464	-0.086971	-0.003646	-0.074703
-0.081891	-0.087054	-0.004305	-0.078536
-0.064188	-0.070006	-0.010673	-0.078712
-0.052267	-0.070159	-0.017015	-0.077183
-0.068946	-0.081732	-0.011912	-0.074565
-0.039874	-0.058996	-0.018251	-0.070800
-0.033762	-0.053484	-0.013144	-0.065896
-0.050515	-0.053706	0.003361	-0.059860
-0.044358	-0.059637	-0.014464	-0.053152
-0.061067	-0.088385	-0.020796	-0.047211
-0.032024	-0.048492	-0.015682	-0.043649
-0.037361	-0.043025	-0.004880	-0.042790
-0.008415	0.008102	0.017297	-0.043101
0.014703	0.041887	0.027963	-0.041882
-0.013667	0.024140	0.032872	-0.036691
-0.024789	0.012176	0.043471	-0.027333
0.021238	0.063072	0.036894	-0.016557
0.009973	0.050946	0.041764	-0.007472
0.015885	0.055999	0.040902	-0.000897
0.033194	0.066740	0.028621	0.004146
-0.029513	-0.013929	0.016390	0.008546
-0.097673	-0.082848	0.015628	0.011040
-0.051346	-0.048699	-0.002263	0.007491
-0.010919	-0.020401	-0.008661	-0.005071
0.017922	0.019201	0.002098	-0.023013
0.046645	0.041510	-0.004320	-0.036927
0.006727	-0.010509	-0.016422	-0.038391
-0.033028	-0.062315	-0.028476	-0.026344
0.007324	-0.051095	-0.057612	-0.007977
-0.021012	-0.057053	-0.035236	0.006957
-0.003550	-0.028725	-0.024373	0.012801
0.030972	0.005196	-0.024977	0.010016
0.008250	-0.006704	-0.019868	0.003463
-0.037221	-0.052819	-0.020491	-0.001535
-0.071084	-0.081614	-0.009692	-0.003784
-0.002022	-0.024636	-0.021779	-0.006576
0.061047	0.020686	-0.045238	-0.012066
0.021071	-0.008412	-0.028629	-0.016708
-0.030161	-0.060232	-0.029220	-0.015067
-0.052632	-0.083290	-0.029810	-0.007370
-0.092141	-0.123383	-0.030397	-0.000680
-0.085805	-0.094789	-0.013852	-0.003138
-0.028101	-0.049181	-0.014507	-0.017621
0.006526	-0.003760	-0.009450	-0.038831
-0.004671	0.001502	0.007007	-0.055954
-0.010113	-0.010389	0.000554	-0.060075
-0.004110	-0.022233	-0.023005	-0.050035
-0.032395	-0.056870	-0.017916	-0.031898
-0.060563	-0.085655	-0.024270	-0.014580
-0.042932	-0.068639	-0.030598	-0.005694
-0.042504	-0.074535	-0.036901	-0.008320
-0.093470	-0.114669	-0.026048	-0.020155
-0.052862	-0.068984	-0.015241	-0.036287
-0.046681	-0.052037	-0.004478	-0.052016
-0.063366	-0.080843	-0.016602	-0.063430
-0.079982	-0.098110	-0.022966	-0.068497
-0.039426	-0.058204	-0.017885	-0.068265
-0.010456	-0.047013	-0.035666	-0.064981
0.006975	-0.035868	-0.041955	-0.059068
-0.038479	-0.064741	-0.025377	-0.049503
-0.032354	-0.076366	-0.043130	-0.037084
0.013719	-0.042260	-0.049391	-0.025259
0.008211	-0.008295	-0.015653	-0.016711
-0.014406	-0.008731	0.006524	-0.011081
-0.071192	-0.054849	0.011479	-0.007451
-0.053510	-0.043676	0.010702	-0.007294
-0.058742	-0.072520	-0.007204	-0.013150
-0.058241	-0.072696	-0.013617	-0.025082
-0.080582	-0.101422	-0.025715	-0.040007
-0.062859	-0.095768	-0.032053	-0.054127
-0.010947	-0.038745	-0.032656	-0.064484
-0.004929	-0.067611	-0.067519	-0.068323
0.012486	-0.084938	-0.102240	-0.063212
0.012697	-0.130746	-0.142529	-0.048982
0.012909	-0.107842	-0.125550	-0.028776
-0.004012	-0.056481	-0.057247	-0.007916
0.007688	0.017511	0.005065	0.008273
0.036472	0.102620	0.067121	0.016877
0.019455	0.164537	0.140342	0.018875
0.048190	0.254750	0.207551	0.018037
0.111069	0.384563	0.274481	0.018685
0.173690	0.530971	0.358265	0.025295
0.247473	0.699615	0.453122	0.042803
0.275270	0.799038	0.519035	0.075045
0.291531	0.852363	0.556120	0.121850
0.313432	0.911172	0.598758	0.177517
0.312400	1.009704	0.698319	0.232719
0.282819	1.113534	0.831727	0.278317
0.207674	1.176955	0.964580	0.307525
0.167096	1.297209	1.125432	0.315886
0.143815	1.376987	1.234221	0.301726
0.137759	1.307957	1.171244	0.268089
0.074624	1.107861	1.034280	0.222998
0.046008	0.971387	0.926418	0.175763
0.000379	0.812622	0.813279	0.132395
-0.125008	0.631659	0.757699	0.093631
-0.289852	0.485692	0.776574	0.054360
-0.436887	0.380291	0.812494	0.003960
-0.503372	0.338130	0.842548	-0.069194
-0.541028	0.290428	0.832500	-0.169308
-0.504292	0.225787	0.725409	-0.287265
-0.387757	0.178539	0.561646	-0.401905
-0.300248	0.148613	0.444231	-0.487061
-0.241646	0.113097	0.355843	-0.521555
-0.206123	0.077724	0.279234	-0.498766
-0.136482	0.099598	0.231486	-0.429702
-0.124228	0.081408	0.206773	-0.336785
-0.094892	0.063291	0.159316	-0.243581
-0.059965	0.068088	0.123472	-0.167016
-0.065152	0.032891	0.099193	-0.114102
-0.076028	0.014968	0.092143	-0.083317
-0.069727	0.025669	0.090830	-0.069061
-0.023480	0.024905	0.049548	-0.064991
-0.011683	-0.010120	0.008433	-0.064550
-0.022776	-0.039292	-0.021093	-0.061679
-0.022402	-0.045503	-0.021948	-0.053334
-0.022029	-0.045980	-0.028511	-0.040886
-0.027368	-0.069296	-0.040759	-0.028336
0.018708	-0.046835	-0.064377	-0.019101
0.018913	-0.053018	-0.070769	-0.013613
-0.015145	-0.076308	-0.060004	-0.009648
-0.037642	-0.065240	-0.026443	-0.005665
0.002767	-0.025667	-0.027282	-0.002906
0.037300	-0.009097	-0.045249	-0.002801
0.054561	0.007403	-0.046013	-0.003452
0.031778	-0.016137	-0.052485	-0.000605
0.031930	-0.033872	-0.064641	0.007962
0.037792	-0.040114	-0.076748	0.020211
0.043629	-0.034911	-0.077385	0.031952
0.043732	-0.018308	-0.060890	0.040141
0.009572	-0.047458	-0.055883	0.043915
-0.007316	-0.082199	-0.073739	0.043249
0.044388	-0.048274	-0.091522	0.038149
0.061619	-0.025909	-0.086391	0.030317
0.061648	-0.020768	-0.081282	0.024215
0.067387	-0.021359	-0.087615	0.024390
0.038839	-0.044789	-0.082502	0.031837
0.004699	-0.068124	-0.071700	0.042961
0.016381	-0.057103	-0.072364	0.051428
0.073697	-0.006154	-0.078736	0.052479
0.079386	-0.012519	-0.096502	0.047175
0.056499	-0.041699	-0.097066	0.041617
0.045126	-0.042209	-0.086207	0.041079
0.062351	-0.031298	-0.092523	0.045827
0.056664	-0.031852	-0.081684	0.052593
0.039580	-0.032404	-0.070889	0.058074
0.016854	-0.055797	-0.071560	0.060140
-0.005778	-0.090515	-0.083649	0.057304
0.005945	-0.085118	-0.089979	0.048763
0.063303	0.005911	-0.062021	0.035855
0.091873	0.022331	-0.068440	0.023533
0.103195	-0.012709	-0.114806	0.018977
0.108759	0.003785	-0.103879	0.027080
0.108590	0.008791	-0.098708	0.046959
0.085579	-0.009066	-0.093558	0.072456
0.074083	-0.021141	-0.094140	0.095280
0.034082	-0.061719	-0.094720	0.108316
0.022796	-0.067869	-0.095298	0.107772
0.022977	-0.062574	-0.090163	0.094012
0.051708	-0.040170	-0.085050	0.071624
0.051771	-0.040700	-0.091379	0.048290
0.074673	-0.012676	-0.086262	0.031850
0.086061	-0.001899	-0.092587	0.027038
0.091692	-0.002589	-0.098887	0.034147
0.131560	0.036696	-0.093740	0.049987
0.154134	0.075819	-0.077194	0.070374
0.130931	0.057677	-0.072137	0.092136
0.124953	0.039607	-0.084233	0.112681
0.118999	0.015900	-0.107700	0.128857
0.090227	-0.019132	-0.108229	0.137638
0.095835	-0.014049	-0.114468	0.137572
0.124260	0.019564	-0.103550	0.129747
0.152567	0.058748	-0.092677	0.118411
0.140786	0.057798	-0.081848	0.109885
0.094789	0.011168	-0.076776	0.108692
0.088953	-0.001011	-0.083145	0.113811
0.134533	0.026832	-0.106619	0.119794
0.145663	0.026007	-0.124287	0.122428
0.128195	0.013765	-0.107621	0.122260
0.127928	0.030123	-0.102444	0.122232
0.144793	0.057833	-0.085868	0.123984
0.161587	0.096848	-0.063650	0.127501
0.144050	0.067179	-0.075786	0.132530
0.132293	0.014788	-0.116424	0.138535
0.137715	0.002582	-0.128344	0.143906
0.143114	0.013267	-0.128795	0.146727
0.148489	0.046748	-0.094982	0.146493
0.125289	0.051539	-0.078439	0.144353
0.170708	0.073440	-0.096226	0.141915
0.227360	0.106670	-0.119651	0.141137
0.192413	0.059818	-0.131560	0.145060
0.203290	0.081680	-0.126289	0.155913
0.208410	0.074899	-0.132460	0.172185
0.236349	0.119536	-0.110054	0.189577
0.235621	0.141148	-0.093451	0.204601
0.234893	0.151248	-0.088337	0.216218
0.199905	0.144174	-0.060403	0.224572
0.199320	0.097154	-0.101107	0.229138
0.232998	0.118849	-0.113094	0.228941
0.260826	0.146163	-0.107901	0.224961
0.254276	0.121970	-0.131281	0.221215
0.264881	0.137846	-0.131724	0.222175
0.218338	0.130814	-0.092193	0.229130
0.217667	0.106677	-0.104217	0.238912
0.234127	0.088348	-0.150454	0.246067
0.210546	0.064382	-0.145109	0.246906
0.209901	0.080484	-0.128365	0.241465
0.209257	0.096519	-0.111690	0.232158
0.191483	0.095355	-0.100793	0.221810
0.208042	0.105614	-0.101362	0.212556
0.264503	0.172933	-0.090509	0.205988
0.275049	0.188581	-0.085410	0.204425
0.256998	0.187031	-0.068913	0.210501
0.239019	0.151223	-0.086745	0.224068
0.198270	0.092718	-0.104504	0.240263
0.157686	0.063002	-0.093640	0.251266
0.162950	0.090509	-0.071400	0.250193
0.173902	0.123612	-0.054962	0.235057
0.150545	0.093764	-0.055723	0.210307
0.121572	0.052616	-0.073612	0.183727
0.121269	0.051607	-0.068587	0.161219
0.149518	0.079153	-0.063584	0.144803
0.166229	0.106583	-0.058601	0.134723
0.142898	0.088217	-0.053640	0.131320
0.125371	0.075634	-0.054410	0.133934
0.102206	0.045971	-0.060888	0.139231
0.044872	-0.034966	-0.084471	0.141803
0.039166	-0.035627	-0.073695	0.136331
0.033483	-0.002025	-0.040124	0.120119
0.022112	-0.019954	-0.046662	0.094997
0.027919	-0.054942	-0.081727	0.066629
0.027992	-0.072656	-0.105227	0.041545
0.056616	-0.050325	-0.105791	0.024578
0.056570	-0.028087	-0.083511	0.017959
0.062235	-0.028782	-0.089874	0.021283
0.039324	-0.058027	-0.101922	0.031577
0.016507	-0.081442	-0.096790	0.043738
0.005204	-0.087631	-0.097389	0.051926
-0.017474	-0.110926	-0.097986	0.051771
-0.017217	-0.111284	-0.098582	0.042127
-0.045512	-0.128772	-0.082044	0.025145
-0.050850	-0.140478	-0.088416	0.004694
-0.061876	-0.157846	-0.094762	-0.015600
-0.067146	-0.169432	-0.095372	-0.033361
-0.043842	-0.140999	-0.101690	-0.047319
-0.026344	-0.118392	-0.090852	-0.056470
-0.031758	-0.124430	-0.097189	-0.059641
-0.020019	-0.124732	-0.103501	-0.056410
-0.042589	-0.147875	-0.109787	-0.048280
-0.070777	-0.176633	-0.104627	-0.038800
-0.053166	-0.159590	-0.105198	-0.032495
0.010055	-0.108355	-0.111478	-0.032043
0.038756	-0.103012	-0.140574	-0.035057
-0.018316	-0.166216	-0.146709	-0.035209
-0.046602	-0.189188	-0.141399	-0.028652
-0.046221	-0.177803	-0.130399	-0.018516
-0.034420	-0.155044	-0.125155	-0.011724
-0.056929	-0.149509	-0.091381	-0.012646
-0.056504	-0.143997	-0.086298	-0.020842
-0.004687	-0.121376	-0.109787	-0.032675
-0.015896	-0.150240	-0.133180	-0.042967
-0.072741	-0.184697	-0.110795	-0.047286
-0.112222	-0.219012	-0.111343	-0.045863
-0.083016	-0.196082	-0.111889	-0.044375
0.008884	-0.104722	-0.112433	-0.048122
-0.030929	-0.145074	-0.112975	-0.055579
-0.082000	-0.196681	-0.119225	-0.060384
-0.041496	-0.156711	-0.114029	-0.059258
0.038815	-0.082642	-0.120275	-0.053906
0.050273	-0.077401	-0.126496	-0.045405
-0.012550	-0.134995	-0.121270	-0.032080
-0.029434	-0.158092	-0.127487	-0.014457
-0.029117	-0.163963	-0.133679	0.001689
-0.023090	-0.158388	-0.134134	0.009469
-0.011378	-0.135706	-0.128878	0.006588
-0.062527	-0.181640	-0.112222	-0.003836
-0.044943	-0.175992	-0.129897	-0.016975
0.001122	-0.124685	-0.124658	-0.029199
0.007026	-0.113560	-0.119440	-0.037376
0.018616	-0.102481	-0.125665	-0.038269
-0.004104	-0.131419	-0.126154	-0.030653
-0.003889	-0.125977	-0.126641	-0.017178
-0.032226	-0.160530	-0.121416	-0.003437
-0.054737	-0.166389	-0.110502	0.004693
-0.077155	-0.189355	-0.111053	0.003270
-0.008115	-0.132282	-0.128734	-0.008091
0.049221	-0.086863	-0.134921	-0.024468
0.003536	-0.127285	-0.129662	-0.036481
-0.024830	-0.150411	-0.130136	-0.036687
-0.024529	-0.150600	-0.124896	-0.026006
0.015744	-0.110817	-0.131100	-0.012039
0.038721	-0.099748	-0.137277	-0.001399
0.027342	-0.111565	-0.137719	0.004935
0.021719	-0.123335	-0.143870	0.009604
-0.006722	-0.146477	-0.138574	0.014390
-0.017916	-0.152393	-0.133301	0.018189
-0.029063	-0.163995	-0.133759	0.018199
-0.051586	-0.181259	-0.134215	0.012298
-0.039753	-0.181321	-0.140379	0.000492
-0.016548	-0.152831	-0.140808	-0.014770
0.023693	-0.118747	-0.146946	-0.028751
-0.004755	-0.124775	-0.118796	-0.035908
0.001176	-0.102227	-0.102183	-0.033247
-0.010048	-0.119743	-0.108478	-0.022721
-0.026937	-0.160029	-0.137590	-0.009950
-0.089438	-0.228701	-0.143741	-0.001315
-0.077449	-0.217147	-0.144156	-0.002009
0.037278	-0.108564	-0.144570	-0.013375
0.122983	-0.028977	-0.150692	-0.028864
0.105550	-0.046792	-0.151078	-0.034903
0.048215	-0.093087	-0.145753	-0.020727
0.013956	-0.139192	-0.146159	0.011358
-0.020162	-0.162267	-0.140853	0.046525
-0.014168	-0.150986	-0.141279	0.067812
0.008932	-0.156881	-0.170255	0.066725
0.009096	-0.157041	-0.164850	0.046978
-0.013581	-0.157201	-0.142336	0.020162
-0.019035	-0.140229	-0.125625	-0.002547
